Height (km), 7_8 um ash conc (g/kg), 15_6 um ash conc (g/kg), 125 um ash conc (g/kg), 1 mm ash conc (g/kg)
0.00000000e+00,0.00000000e+00,0.00000000e+00,0.00000000e+00,0.00000000e+00
3.99999991e-02,6.08266433e-08,8.44464623e-08,6.27302234e-06,1.96690121e+01
7.99999982e-02,1.31468511e-07,1.85624032e-07,3.40825136e-05,2.38243523e+01
1.19999997e-01,2.11519875e-07,2.99273665e-07,5.69706463e-05,2.60135803e+01
1.59999996e-01,3.33953722e-07,4.73430845e-07,9.02955217e-05,2.86585350e+01
2.00000003e-01,5.37986580e-07,7.65171080e-07,1.35873954e-04,2.97030964e+01
2.39999995e-01,7.39558345e-07,1.05625270e-06,1.89088008e-04,3.15661545e+01
2.80000001e-01,1.00871046e-06,1.44912201e-06,2.61604175e-04,3.27786179e+01
3.19999993e-01,1.26525174e-06,1.83129600e-06,3.48785019e-04,3.40525208e+01
3.60000014e-01,1.53010444e-06,2.23436882e-06,4.59522387e-04,3.51382523e+01
4.00000006e-01,1.83446662e-06,2.70604778e-06,5.99527732e-04,3.62118950e+01
4.39999998e-01,2.20961647e-06,3.27539260e-06,7.76604749e-04,3.70980492e+01
4.79999989e-01,2.66079087e-06,3.94767994e-06,9.94629227e-04,3.80614281e+01
5.19999981e-01,3.18248317e-06,4.73343698e-06,1.25775952e-03,3.88279266e+01
5.60000002e-01,3.76664434e-06,5.62556852e-06,1.56740402e-03,3.96737900e+01
6.00000024e-01,4.43994122e-06,6.65378639e-06,1.92660640e-03,4.03510475e+01
6.41029537e-01,5.23945255e-06,7.87055251e-06,2.34483206e-03,4.11030655e+01
6.83115125e-01,6.16694160e-06,9.26385110e-06,2.82827066e-03,4.17259560e+01
7.26283848e-01,7.20694879e-06,1.08480726e-05,3.38099338e-03,4.24445877e+01
7.70563781e-01,8.38056803e-06,1.26969298e-05,4.00882913e-03,4.30785599e+01
8.15983355e-01,9.71526151e-06,1.48259369e-05,4.70568193e-03,4.37510529e+01
8.62571895e-01,1.12689377e-05,1.72809523e-05,5.47412457e-03,4.44000778e+01
9.10359621e-01,1.30366980e-05,2.00868872e-05,6.32615853e-03,4.50447540e+01
9.59377348e-01,1.50598726e-05,2.33316368e-05,7.26198405e-03,4.57031212e+01
1.00965667e+00,1.73870758e-05,2.71047975e-05,8.28027539e-03,4.63592453e+01
1.06123006e+00,2.00823324e-05,3.15020079e-05,9.39142331e-03,4.70201874e+01
1.11413085e+00,2.32243656e-05,3.66713430e-05,1.06001236e-02,4.76977005e+01
1.16839325e+00,2.69471093e-05,4.28317217e-05,1.19114462e-02,4.83745880e+01
1.22405231e+00,3.13911878e-05,5.01973227e-05,1.33381654e-02,4.90608521e+01
1.28114390e+00,3.67249668e-05,5.90782001e-05,1.48911616e-02,4.97564926e+01
1.33970511e+00,4.31291810e-05,6.97318537e-05,1.65793952e-02,5.04349937e+01
1.39977336e+00,2.02188281e+04,2.83237461e+04,2.01039102e+04,2.22705664e+03
1.46138775e+00,2.63319766e+04,3.68664922e+04,2.48411582e+04,2.17848511e+03
1.52458799e+00,1.64341855e+04,2.30068672e+04,1.55581133e+04,1.50901611e+03
1.58941495e+00,1.56326543e+04,2.18918574e+04,1.51472520e+04,1.70160938e+03
1.65591037e+00,1.55430342e+04,2.17695938e+04,1.52227129e+04,1.82218677e+03
1.72411728e+00,1.56176846e+04,2.18760508e+04,1.53936777e+04,1.91449609e+03
1.79407966e+00,1.57507607e+04,2.20636953e+04,1.55891436e+04,1.98881909e+03
1.86584306e+00,1.58586650e+04,2.22156641e+04,1.57388789e+04,2.04305493e+03
1.93945324e+00,1.59309004e+04,2.23174277e+04,1.58404932e+04,2.08311450e+03
2.01495814e+00,1.59883223e+04,2.23983203e+04,1.59209902e+04,2.11645215e+03
2.09240627e+00,1.60590723e+04,2.24977930e+04,1.60104707e+04,2.14781006e+03
2.17184782e+00,1.61261660e+04,2.25920625e+04,1.60923164e+04,2.17525146e+03
2.25333428e+00,1.61712070e+04,2.26553711e+04,1.61488008e+04,2.19646777e+03
2.33691788e+00,1.61683145e+04,2.26514551e+04,1.61538994e+04,2.20787769e+03
2.42265272e+00,1.61114160e+04,2.25718438e+04,1.61029727e+04,2.21024634e+03
2.51059437e+00,1.60265820e+04,2.24530996e+04,1.60241543e+04,2.20897168e+03
2.60079956e+00,1.59668867e+04,2.23696133e+04,1.59717461e+04,2.21214795e+03
2.69332647e+00,1.59800596e+04,2.23882461e+04,1.59937295e+04,2.22637354e+03
2.78823495e+00,1.60824678e+04,2.25318984e+04,1.61058389e+04,2.25312964e+03
2.88558602e+00,1.62590225e+04,2.27794043e+04,1.62915059e+04,2.28888062e+03
2.98544264e+00,1.64628164e+04,2.30650039e+04,1.65018965e+04,2.32552271e+03
3.08786964e+00,1.66405352e+04,2.33139941e+04,1.66826367e+04,2.35514258e+03
3.19293284e+00,1.67352695e+04,2.34466445e+04,1.67764082e+04,2.36963672e+03
3.30070019e+00,1.67012656e+04,2.33988828e+04,1.67378750e+04,2.36332104e+03
3.41124129e+00,1.65548555e+04,2.31936348e+04,1.65852988e+04,2.34058740e+03
3.52462745e+00,1.63540977e+04,2.29122656e+04,1.63785332e+04,2.31069141e+03
3.64093208e+00,1.61447646e+04,2.26189082e+04,1.61636553e+04,2.28039136e+03
3.76023054e+00,1.59811084e+04,2.23895938e+04,1.59965723e+04,2.25856934e+03
3.88259912e+00,1.59651055e+04,2.23671895e+04,1.59798789e+04,2.25963965e+03
4.00811720e+00,1.60869375e+04,2.25378398e+04,1.60993057e+04,2.27787427e+03
4.13686609e+00,1.62434932e+04,2.27570703e+04,1.62517695e+04,2.30065234e+03
4.26892853e+00,1.64010508e+04,2.29776992e+04,1.64058125e+04,2.32457617e+03
4.40439081e+00,1.64259941e+04,2.30124668e+04,1.64235117e+04,2.32779590e+03
4.54333878e+00,1.61846172e+04,2.26741348e+04,1.61750312e+04,2.29697632e+03
4.68586397e+00,1.58485000e+04,2.22032363e+04,1.58382051e+04,2.25920410e+03
4.83205652e+00,1.54804834e+04,2.16875742e+04,1.54654668e+04,2.21355518e+03
4.98201227e+00,1.50371885e+04,2.10665684e+04,1.50226221e+04,2.16490015e+03
5.13582754e+00,1.50785459e+04,2.11247520e+04,1.50737168e+04,2.18965112e+03
5.29360199e+00,1.55462520e+04,2.17799961e+04,1.55424531e+04,2.26679419e+03
5.45543718e+00,1.61448965e+04,2.26187207e+04,1.61449668e+04,2.36689258e+03
5.62143755e+00,1.68051152e+04,2.35433477e+04,1.67926309e+04,2.46000317e+03
5.79171038e+00,1.68728633e+04,2.36376602e+04,1.68367383e+04,2.46817529e+03
5.96636629e+00,1.64496758e+04,2.30446211e+04,1.64065859e+04,2.42881250e+03
6.14551687e+00,1.58252441e+04,2.21698359e+04,1.57786680e+04,2.36345410e+03
6.32927942e+00,1.47408906e+04,2.06504824e+04,1.46800664e+04,2.22535010e+03
6.51777077e+00,1.40870908e+04,1.97345098e+04,1.40244170e+04,2.16176099e+03
6.71111441e+00,1.48495488e+04,2.08031250e+04,1.48046465e+04,2.30397754e+03
6.90943432e+00,1.61279707e+04,2.25938203e+04,1.60667002e+04,2.47794971e+03
7.11285782e+00,1.63368223e+04,2.28856621e+04,1.62473301e+04,2.50184277e+03
7.32151794e+00,1.60182246e+04,2.24392520e+04,1.59298486e+04,2.47619995e+03
7.53554821e+00,1.54201348e+04,2.16016758e+04,1.53459580e+04,2.41219458e+03
7.75508738e+00,1.49498271e+04,2.09432207e+04,1.48913877e+04,2.35790674e+03
7.98027754e+00,1.42432891e+04,1.99533281e+04,1.41792803e+04,2.26086084e+03
8.21126270e+00,1.31307861e+04,1.83956914e+04,1.31105850e+04,2.16568701e+03
8.44819450e+00,1.34908076e+04,1.89007988e+04,1.35010781e+04,2.25324438e+03
8.69122219e+00,1.42193115e+04,1.99212090e+04,1.42202598e+04,2.36992700e+03
8.94050789e+00,1.53799121e+04,2.15474961e+04,1.53982383e+04,2.57288013e+03
9.19620800e+00,1.70110938e+04,2.38315840e+04,1.69832520e+04,2.79320898e+03
9.45849037e+00,1.69010859e+04,2.36764102e+04,1.68363164e+04,2.81189624e+03
9.72752285e+00,1.74658008e+04,2.44688184e+04,1.74583672e+04,2.99005078e+03
1.00034800e+01,1.85457500e+04,2.59816602e+04,1.85268184e+04,3.16874512e+03
1.02865391e+01,1.76969531e+04,2.47917344e+04,1.76462422e+04,3.09356885e+03
1.05768833e+01,1.71826055e+04,2.40707500e+04,1.71218477e+04,3.08078784e+03
1.08747025e+01,1.64530039e+04,2.30483574e+04,1.63835742e+04,3.02318286e+03
1.11801853e+01,1.47186074e+04,2.06179688e+04,1.46263223e+04,2.79264966e+03
1.14935322e+01,1.27850430e+04,1.79088477e+04,1.26936807e+04,2.54392749e+03
1.18149433e+01,1.29991348e+04,1.82090547e+04,1.29364893e+04,2.58862036e+03
1.21446266e+01,1.26825303e+04,1.77652559e+04,1.26260508e+04,2.57305957e+03
1.24827967e+01,1.12566152e+04,1.57689434e+04,1.12741006e+04,2.49004370e+03
1.28296700e+01,1.16979863e+04,1.63878809e+04,1.17623320e+04,2.61624512e+03
1.31854706e+01,1.15283945e+04,1.61512910e+04,1.16602773e+04,2.66076465e+03
1.35504293e+01,1.04067773e+04,1.45816328e+04,1.06381748e+04,2.60720166e+03
1.39247818e+01,9.50487695e+03,1.33193779e+04,9.85197168e+03,2.53832202e+03
1.43087692e+01,1.00306260e+04,1.40578418e+04,1.05670723e+04,2.69708057e+03
1.47026405e+01,1.16580068e+04,1.63399971e+04,1.24655352e+04,3.01940820e+03
1.51066484e+01,1.38485059e+04,1.94129766e+04,1.51041484e+04,3.41649512e+03
1.55210552e+01,1.62141172e+04,2.27304961e+04,1.78774297e+04,3.70115723e+03
1.59461288e+01,1.58169746e+04,2.21762500e+04,1.78759473e+04,3.61678540e+03
1.63821430e+01,1.60792900e+04,2.25469043e+04,1.84473281e+04,3.76997925e+03
1.68293781e+01,1.61077480e+04,2.25953281e+04,1.91799648e+04,3.91121338e+03
1.72881241e+01,1.61692246e+04,2.27009219e+04,2.06048418e+04,4.07743164e+03
1.77586803e+01,1.79530391e+04,2.52292109e+04,2.39265918e+04,4.43065039e+03
1.82413464e+01,2.30101484e+04,3.23429258e+04,3.04311875e+04,5.04608496e+03
1.87364349e+01,2.75294863e+04,3.86848477e+04,3.55426797e+04,5.26005957e+03
1.92442665e+01,2.78355781e+04,3.91060469e+04,3.53335273e+04,4.86113672e+03
1.97651691e+01,3.03182188e+04,4.25829688e+04,3.67450781e+04,4.79899756e+03
2.02994785e+01,3.54670664e+04,4.97888203e+04,4.00951211e+04,5.08751465e+03
2.08475418e+01,4.22784453e+04,5.93140273e+04,4.42681094e+04,5.43318848e+03
2.14097099e+01,4.81131172e+04,6.74395625e+04,4.70465078e+04,5.58996191e+03
2.19863453e+01,5.30910547e+04,7.43547344e+04,4.93996562e+04,5.81692383e+03
2.25778236e+01,5.72241250e+04,8.00788828e+04,5.15479219e+04,5.92318262e+03
2.31845264e+01,5.79402109e+04,8.10275078e+04,5.10887422e+04,5.79143506e+03
2.38068466e+01,5.30280039e+04,7.41320938e+04,4.63763672e+04,5.13886279e+03
2.44451809e+01,4.82559609e+04,6.74481953e+04,4.20178867e+04,4.71080225e+03
2.50999470e+01,4.48239688e+04,6.26526641e+04,3.94627188e+04,4.58383105e+03
2.57715645e+01,4.09208008e+04,5.72079609e+04,3.67253828e+04,3.94917700e+03
2.64604683e+01,3.61334844e+04,5.05253047e+04,3.29968750e+04,3.71476855e+03
2.71671047e+01,3.20103633e+04,4.47801953e+04,2.97302500e+04,3.52886865e+03
2.78919277e+01,3.02247383e+04,4.22992227e+04,2.85743984e+04,3.48132104e+03
2.86354065e+01,2.88036172e+04,4.03228906e+04,2.76726348e+04,3.71578271e+03
2.93980217e+01,2.87246641e+04,4.02070859e+04,2.71377344e+04,3.05583496e+03
3.01802654e+01,2.17566328e+04,3.04054102e+04,1.81775020e+04,1.06779712e+03
3.09826431e+01,8.98322949e+03,1.25199043e+04,6.15679541e+03,1.55650665e+02
3.18056717e+01,3.19167090e+03,4.43360352e+03,1.68615381e+03,3.05351901e+00
3.26498833e+01,1.86190332e+03,2.58344800e+03,9.06811890e+02,1.79409444e-01
3.35158234e+01,1.14702563e+03,1.59087061e+03,5.24002869e+02,5.19003421e-02
3.44040565e+01,7.89056091e+02,1.09353613e+03,3.31118866e+02,5.39659411e-02
3.53151436e+01,3.76954681e+02,5.21718933e+02,1.48224854e+02,4.25786935e-02
3.62496834e+01,2.49357300e+02,3.45826965e+02,1.20051224e+02,7.66651193e-03
3.72082787e+01,3.49887787e+02,4.86275940e+02,1.94961151e+02,8.02685157e-04
3.81915474e+01,5.33439819e+02,7.41213928e+02,2.73199371e+02,1.49887317e-04
3.92001228e+01,3.95633545e+02,5.47411499e+02,1.35909439e+02,1.69311097e-05
4.02346535e+01,2.16712513e+01,2.93361244e+01,2.09932923e+00,1.00911857e-05
4.12958107e+01,3.72188544e+00,5.03243494e+00,2.73007154e-01,4.70567193e-06
4.23842850e+01,1.54232609e+00,2.07745266e+00,9.00149494e-02,1.99376268e-06
4.35007744e+01,5.79271555e-01,7.79150963e-01,3.33562903e-02,7.10722986e-07
4.46459999e+01,2.87561297e-01,3.86997253e-01,1.75470971e-02,3.19736756e-07
4.58207016e+01,9.10898075e-02,1.22162461e-01,3.92362475e-03,1.13097450e-07
4.70256386e+01,1.22433053e-02,1.62531938e-02,2.09073522e-04,2.39058568e-08
4.82615852e+01,1.12098781e-03,1.47935387e-03,2.55649938e-05,2.92167490e-09
4.95293465e+01,2.88363699e-05,3.75735581e-05,8.27226756e-07,7.61693972e-11
5.08297386e+01,7.14286489e-06,9.44172371e-06,4.31058112e-07,5.14113882e-12
5.21635971e+01,3.64129755e-06,4.78653965e-06,2.52211777e-07,9.06711511e-12
5.35317917e+01,4.02017157e-08,5.35065077e-08,3.72479464e-10,6.72435333e-14
5.49351997e+01,3.75038889e-09,5.14644860e-09,4.40575271e-10,9.90944777e-15
5.63747253e+01,6.67169653e-11,8.65211860e-11,3.23348715e-13,1.62285001e-16
5.78513031e+01,1.61191199e-12,2.43939894e-12,1.67214604e-13,2.13951324e-17
5.93278885e+01,4.79683601e-14,5.27200083e-14,1.15658071e-15,1.86219676e-18
6.08044662e+01,4.21280900e-15,5.81263316e-15,3.88844450e-16,1.62055765e-20
6.22810478e+01,3.83714462e-17,4.12698076e-17,1.91768805e-17,2.45022247e-21
6.37576256e+01,2.44785491e-17,2.71213051e-17,2.39644067e-18,1.88550473e-23
6.52341995e+01,9.96182194e-19,1.53282585e-18,2.15579456e-20,3.30030037e-24
6.67107849e+01,3.04936675e-20,3.41260696e-20,3.22146499e-21,2.46422736e-26
6.81873703e+01,1.32920786e-21,2.05616804e-21,2.76142464e-23,3.86270981e-27
6.96639481e+01,4.60801991e-23,5.87975898e-23,2.91534118e-24,9.22140433e-29
7.11405258e+01,2.82218223e-24,4.33786013e-24,1.18976889e-25,8.08941132e-30
7.26171036e+01,1.81730109e-25,2.52092853e-25,8.65515074e-27,4.02845864e-31
7.40936813e+01,1.07902074e-26,1.48746164e-26,4.68910449e-28,2.74101067e-32
7.55702591e+01,5.78626296e-28,7.74569687e-28,2.54956351e-29,1.43260105e-33
7.70468445e+01,2.46762693e-29,3.29255599e-29,1.13438647e-30,6.16372529e-35
7.85234222e+01,7.46889127e-31,9.96032663e-31,3.49572389e-32,1.92035161e-36
8.00000000e+01,2.52544029e-32,3.33688581e-32,1.14520838e-33,7.34854928e-38
