Height (km), 7_8 um ash conc (g/kg), 15_6 um ash conc (g/kg), 125 um ash conc (g/kg), 1 mm ash conc (g/kg)
0.00000000e+00,0.00000000e+00,0.00000000e+00,0.00000000e+00,0.00000000e+00
3.99999991e-02,1.88057739e-16,5.18322066e-16,1.33636836e-02,1.12720566e+01
7.99999982e-02,5.60086306e-15,1.52260305e-14,3.88605222e-02,1.26188412e+01
1.19999997e-01,4.15098931e-14,1.16108837e-13,5.95412999e-02,1.33561392e+01
1.59999996e-01,1.59873525e-13,4.57329107e-13,7.07098395e-02,1.41661205e+01
2.00000003e-01,8.25425936e-13,2.23991702e-12,7.48920590e-02,1.50863256e+01
2.39999995e-01,2.64530672e-12,7.43959061e-12,8.05651993e-02,1.61523819e+01
2.80000001e-01,1.30608944e-11,3.43433094e-11,8.51500779e-02,1.69522381e+01
3.19999993e-01,3.94461026e-11,1.07666244e-10,8.68105218e-02,1.78044014e+01
3.60000014e-01,1.81794108e-10,4.69030925e-10,8.77528712e-02,1.85640011e+01
4.00000006e-01,7.17385262e-10,1.88305638e-09,8.56584236e-02,1.95078945e+01
4.39999998e-01,2.23722840e-09,5.98085359e-09,8.24032277e-02,2.02138309e+01
4.79999989e-01,1.26921815e-08,3.23126486e-08,7.92817771e-02,2.15864353e+01
5.19999981e-01,3.53760896e-08,9.42214626e-08,7.80465975e-02,2.24762135e+01
5.60000002e-01,1.27181281e-07,3.20468075e-07,9.05232877e-02,2.34704647e+01
6.00000024e-01,2.89355285e-07,7.66795438e-07,1.19644351e-01,2.43736382e+01
6.41029537e-01,7.59325076e-07,2.00260592e-06,1.01841696e-01,2.51568069e+01
6.83115125e-01,1.69149257e-06,4.71979456e-06,1.13064460e-01,2.58580437e+01
7.26283848e-01,3.97999156e-06,1.16696792e-05,1.08536012e-01,2.77088375e+01
7.70563781e-01,9.70523888e-06,2.92908699e-05,1.08681738e-01,2.98247185e+01
8.15983355e-01,2.10360613e-05,6.32861993e-05,1.11776732e-01,3.41030846e+01
8.62571895e-01,3.73651528e-05,1.10630630e-04,1.17961206e-01,3.66483688e+01
9.10359621e-01,5.56747254e-05,1.57964008e-04,1.22072361e-01,4.19014816e+01
9.59377348e-01,7.03903206e-05,1.89002545e-04,1.46579102e-01,4.04057274e+01
1.00965667e+00,7.63302669e-05,1.92369625e-04,1.41629174e-01,4.39462967e+01
1.06123006e+00,8.36212712e-05,1.89435974e-04,1.62557378e-01,4.70284767e+01
1.11413085e+00,1.04109393e-04,2.05460325e-04,1.65851578e-01,5.23402634e+01
1.16839325e+00,1.34115427e-04,2.39073852e-04,1.74297780e-01,5.01210670e+01
1.22405231e+00,1.68609302e-04,2.80289940e-04,1.79076806e-01,5.05547562e+01
1.28114390e+00,2.10082231e-04,3.30726529e-04,2.00630441e-01,6.21270599e+01
1.33970511e+00,2.30651320e-04,3.41284554e-04,2.08964422e-01,6.47147903e+01
1.39977336e+00,2.06696523e+04,2.89379102e+04,1.93586934e+04,1.24136011e+03
1.46138775e+00,2.56015703e+04,3.58013633e+04,2.15764062e+04,1.30179602e+03
1.52458799e+00,1.54155352e+04,2.15527031e+04,1.31199629e+04,9.53269775e+02
1.58941495e+00,1.46539062e+04,2.04981445e+04,1.28983379e+04,1.03773669e+03
1.65591037e+00,1.36208359e+04,1.90546113e+04,1.20559785e+04,1.02026868e+03
1.72411728e+00,1.21312080e+04,1.69714688e+04,1.07723477e+04,9.44780701e+02
1.79407966e+00,1.09038730e+04,1.52564141e+04,9.77459668e+03,9.43973755e+02
1.86584306e+00,1.02781699e+04,1.43840586e+04,9.36109180e+03,9.73194092e+02
1.93945324e+00,1.03295654e+04,1.44598203e+04,9.58990234e+03,1.11327820e+03
2.01495814e+00,1.10254316e+04,1.54384980e+04,1.04666113e+04,1.32053174e+03
2.09240627e+00,1.24884355e+04,1.74922441e+04,1.21382422e+04,1.66999243e+03
2.17184782e+00,1.45351465e+04,2.03628516e+04,1.43548320e+04,2.03214429e+03
2.25333428e+00,1.65518789e+04,2.31899219e+04,1.64749277e+04,2.35565137e+03
2.33691788e+00,1.81522305e+04,2.54325977e+04,1.81290098e+04,2.54256348e+03
2.42265272e+00,1.91110781e+04,2.67748984e+04,1.90341953e+04,2.57898145e+03
2.51059437e+00,1.93291328e+04,2.70775898e+04,1.90862461e+04,2.44168066e+03
2.60079956e+00,1.92381016e+04,2.69467617e+04,1.87982363e+04,2.30366846e+03
2.69332647e+00,1.89574727e+04,2.65504062e+04,1.83252422e+04,2.14786768e+03
2.78823495e+00,1.83227188e+04,2.56581758e+04,1.75156758e+04,1.97918372e+03
2.88558602e+00,1.75120410e+04,2.45200664e+04,1.65683145e+04,1.82913000e+03
2.98544264e+00,1.67514141e+04,2.34526367e+04,1.57067559e+04,1.71834924e+03
3.08786964e+00,1.58016914e+04,2.21210605e+04,1.47051348e+04,1.60500586e+03
3.19293284e+00,1.46742275e+04,2.05414238e+04,1.35830352e+04,1.51755396e+03
3.30070019e+00,1.35402930e+04,1.89536562e+04,1.25015977e+04,1.44040161e+03
3.41124129e+00,1.24797715e+04,1.74693594e+04,1.15236289e+04,1.38042712e+03
3.52462745e+00,1.16083848e+04,1.62504766e+04,1.07525879e+04,1.36003076e+03
3.64093208e+00,1.09775039e+04,1.53686406e+04,1.02255039e+04,1.36332422e+03
3.76023054e+00,1.06403516e+04,1.48984844e+04,9.99802734e+03,1.38936597e+03
3.88259912e+00,1.07543730e+04,1.50602627e+04,1.02093184e+04,1.49587354e+03
4.00811720e+00,1.12332354e+04,1.57326416e+04,1.07588359e+04,1.60149780e+03
4.13686609e+00,1.18424844e+04,1.65874023e+04,1.14305244e+04,1.76279150e+03
4.26892853e+00,1.25532852e+04,1.75842852e+04,1.21995654e+04,1.88909082e+03
4.40439081e+00,1.33491943e+04,1.86999043e+04,1.30333037e+04,2.03694788e+03
4.54333878e+00,1.39903496e+04,1.95985449e+04,1.37129951e+04,2.15410010e+03
4.68586397e+00,1.45506143e+04,2.03845156e+04,1.43481445e+04,2.28612402e+03
4.83205652e+00,1.53883262e+04,2.15590527e+04,1.52529609e+04,2.43438818e+03
4.98201227e+00,1.58390713e+04,2.21911758e+04,1.57595527e+04,2.51652637e+03
5.13582754e+00,1.62248730e+04,2.27321172e+04,1.61784492e+04,2.55292334e+03
5.29360199e+00,1.73640156e+04,2.43268789e+04,1.72613438e+04,2.63148730e+03
5.45543718e+00,1.79435273e+04,2.51372070e+04,1.77640840e+04,2.62689258e+03
5.62143755e+00,1.86525820e+04,2.61307930e+04,1.84426211e+04,2.64753271e+03
5.79171038e+00,2.16502832e+04,3.03272148e+04,2.11849473e+04,2.83625781e+03
5.96636629e+00,2.17506680e+04,3.04622383e+04,2.09953047e+04,2.70064648e+03
6.14551687e+00,2.11723027e+04,2.96497754e+04,2.02879336e+04,2.56956152e+03
6.32927942e+00,2.11237500e+04,2.95767324e+04,1.99680996e+04,2.46726660e+03
6.51777077e+00,1.90149492e+04,2.66197598e+04,1.77403555e+04,2.20636841e+03
6.71111441e+00,1.54892314e+04,2.16825527e+04,1.43679902e+04,1.92699316e+03
6.90943432e+00,1.35321035e+04,1.89443418e+04,1.26092783e+04,1.86955957e+03
7.11285782e+00,1.33355283e+04,1.86694258e+04,1.24562988e+04,1.97559009e+03
7.32151794e+00,1.26126260e+04,1.76602598e+04,1.19414961e+04,2.11125732e+03
7.53554821e+00,1.36635605e+04,1.91360820e+04,1.31437051e+04,2.45178809e+03
7.75508738e+00,1.45801523e+04,2.04198086e+04,1.40481104e+04,2.69629907e+03
7.98027754e+00,1.36595820e+04,1.91320977e+04,1.32572012e+04,2.75969702e+03
8.21126270e+00,1.32213486e+04,1.85191504e+04,1.28982969e+04,2.80650244e+03
8.44819450e+00,1.21036953e+04,1.69551562e+04,1.19016562e+04,2.71491504e+03
8.69122219e+00,1.20841367e+04,1.69284727e+04,1.19696885e+04,2.70552881e+03
8.94050789e+00,1.31340791e+04,1.83962012e+04,1.30199229e+04,2.76770703e+03
9.19620800e+00,1.33728750e+04,1.87284941e+04,1.34439336e+04,2.76829980e+03
9.45849037e+00,1.34643438e+04,1.88564277e+04,1.40226660e+04,2.76248340e+03
9.72752285e+00,1.38048203e+04,1.93318203e+04,1.51712490e+04,2.75885229e+03
1.00034800e+01,1.33721729e+04,1.87252227e+04,1.61148311e+04,2.75415576e+03
1.02865391e+01,1.27020918e+04,1.77858965e+04,1.72095840e+04,2.76771533e+03
1.05768833e+01,1.12686934e+04,1.57768135e+04,1.73227109e+04,2.68618042e+03
1.08747025e+01,9.27608203e+03,1.29859219e+04,1.64565254e+04,2.57955811e+03
1.11801853e+01,6.80480371e+03,9.53404004e+03,1.55190840e+04,2.53572852e+03
1.14935322e+01,5.92120654e+03,8.31075977e+03,1.61406660e+04,2.59941650e+03
1.18149433e+01,6.76607227e+03,9.50799805e+03,1.77200918e+04,2.69709814e+03
1.21446266e+01,8.02367871e+03,1.12897539e+04,1.95454219e+04,2.76907373e+03
1.24827967e+01,9.22241406e+03,1.29945654e+04,2.14634785e+04,2.86657129e+03
1.28296700e+01,1.09667617e+04,1.54733008e+04,2.36542207e+04,3.05368579e+03
1.31854706e+01,1.36176631e+04,1.92204258e+04,2.63868223e+04,3.24861182e+03
1.35504293e+01,1.55375576e+04,2.19359160e+04,2.84305996e+04,3.34562793e+03
1.39247818e+01,1.73481777e+04,2.45106973e+04,3.05676055e+04,3.49151562e+03
1.43087692e+01,1.98739375e+04,2.80920332e+04,3.29985859e+04,3.59819287e+03
1.47026405e+01,2.13654492e+04,3.02431445e+04,3.39640898e+04,3.54570410e+03
1.51066484e+01,2.17221445e+04,3.07661680e+04,3.34664648e+04,3.43366357e+03
1.55210552e+01,2.37639492e+04,3.36365977e+04,3.41168398e+04,3.45553369e+03
1.59461288e+01,2.68703301e+04,3.80105312e+04,3.57219531e+04,3.65345166e+03
1.63821430e+01,3.11067227e+04,4.39872578e+04,3.76340078e+04,3.82893359e+03
1.68293781e+01,3.89004844e+04,5.48935391e+04,4.11254023e+04,4.01990283e+03
1.72881241e+01,4.61428672e+04,6.48388945e+04,4.35443086e+04,4.20739941e+03
1.77586803e+01,4.91411641e+04,6.88057891e+04,4.30159414e+04,4.21979785e+03
1.82413464e+01,4.95056055e+04,6.91993125e+04,4.13817266e+04,3.87184692e+03
1.87364349e+01,4.82577734e+04,6.74090859e+04,3.89904375e+04,3.36998315e+03
1.92442665e+01,4.43771641e+04,6.19101406e+04,3.46603398e+04,3.03181299e+03
1.97651691e+01,4.39638789e+04,6.12922539e+04,3.39622461e+04,2.69848560e+03
2.02994785e+01,4.28240195e+04,5.96841953e+04,3.34487461e+04,2.70324023e+03
2.08475418e+01,3.95508438e+04,5.50751836e+04,3.06799766e+04,2.50921240e+03
2.14097099e+01,3.83766484e+04,5.34073438e+04,2.88618672e+04,1.93644751e+03
2.19863453e+01,3.37039766e+04,4.68411406e+04,2.20635586e+04,9.56472900e+02
2.25778236e+01,2.44421465e+04,3.38849375e+04,1.27969170e+04,3.81818420e+02
2.31845264e+01,1.47985352e+04,2.04642793e+04,6.84465625e+03,1.61217285e+02
2.38068466e+01,8.82893359e+03,1.21786914e+04,3.67375537e+03,5.19183350e+01
2.44451809e+01,6.28002490e+03,8.66376953e+03,2.58249292e+03,3.28500443e+01
2.50999470e+01,6.43547559e+03,8.89686621e+03,2.71519067e+03,2.49457245e+01
2.57715645e+01,4.58002148e+03,6.32049023e+03,1.80222742e+03,9.29156876e+00
2.64604683e+01,2.25598706e+03,3.09730273e+03,7.94200684e+02,1.40248024e+00
2.71671047e+01,1.35788025e+03,1.86131763e+03,4.07349182e+02,3.20287406e-01
2.78919277e+01,9.16468323e+02,1.25527356e+03,1.86204956e+02,1.64481420e-02
2.86354065e+01,3.29313080e+02,4.47000366e+02,3.68266449e+01,2.98511889e-02
2.93980217e+01,2.09872650e+02,2.85155853e+02,3.43473740e+01,8.00886424e-04
3.01802654e+01,8.04433670e+01,1.08722313e+02,1.12769499e+01,2.54988030e-04
3.09826431e+01,2.53625298e+01,3.40116501e+01,1.96586704e+00,6.48066853e-05
3.18056717e+01,7.53199768e+00,9.95375538e+00,1.52418599e-01,1.29603332e-05
3.26498833e+01,1.85779774e+00,2.42777109e+00,2.59959828e-02,2.76497690e-06
3.35158234e+01,8.48703384e-01,1.11633074e+00,8.66032857e-03,8.95017195e-07
3.44040565e+01,7.00702667e-01,9.23824251e-01,7.50387611e-04,8.16229260e-07
3.53151436e+01,2.61258334e-01,3.35208058e-01,2.32800347e-04,1.77742876e-07
3.62496834e+01,4.56296057e-02,5.72773740e-02,2.15765485e-05,2.19752625e-08
3.72082787e+01,2.05427986e-02,2.58892011e-02,7.40155747e-06,6.77352396e-09
3.81915474e+01,6.66576577e-03,8.25854111e-03,6.67234019e-07,1.91444505e-09
3.92001228e+01,1.39727443e-03,1.69665215e-03,1.11762148e-07,3.66281810e-10
4.02346535e+01,3.83469102e-04,4.56912880e-04,1.96011651e-08,9.64437349e-11
4.12958107e+01,4.16175608e-05,4.83269214e-05,2.43052245e-09,9.66673876e-12
4.23842850e+01,2.54860222e-08,2.63208477e-08,2.74805109e-11,1.05865380e-14
4.35007744e+01,1.05386166e-09,1.20900867e-09,1.17204727e-12,5.36259418e-16
4.46459999e+01,2.35873005e-11,2.67455797e-11,2.48600477e-14,2.44837851e-18
4.58207016e+01,2.69122859e-13,3.10840139e-13,3.07177266e-16,1.91867904e-20
4.70256386e+01,8.10315128e-16,1.09308522e-15,4.49454945e-19,5.46475680e-22
4.82615852e+01,2.53625752e-17,3.74359016e-17,5.39494660e-20,3.94692788e-24
4.95293465e+01,2.91494958e-19,3.39913045e-19,3.39584576e-22,8.79103573e-26
5.08297386e+01,7.61739058e-20,9.76591145e-20,2.86827498e-24,4.11558711e-27
5.21635971e+01,3.33613013e-22,4.64352862e-22,7.85044298e-26,3.80426956e-29
5.35317917e+01,1.04851826e-23,1.27702042e-23,5.45405064e-28,2.27204212e-30
5.49351997e+01,1.00469165e-25,1.27961029e-25,7.62387268e-30,2.80284550e-32
5.63747253e+01,1.72803968e-27,2.11272473e-27,1.05530852e-31,1.05373279e-33
5.78513031e+01,2.47871021e-29,3.09702294e-29,1.60109328e-33,1.42452194e-35
5.93278885e+01,6.51060242e-31,8.68084522e-31,2.49635855e-35,2.61092732e-37
6.08044662e+01,1.39399509e-32,1.93205295e-32,4.83442365e-37,5.11193680e-39
6.22810478e+01,3.60636891e-34,4.89681605e-34,9.97163987e-39,8.54792063e-41
6.37576256e+01,7.85116006e-36,1.06923322e-35,1.66754517e-40,0.00000000e+00
6.52341995e+01,1.76329590e-37,2.43023000e-37,0.00000000e+00,0.00000000e+00
6.67107849e+01,3.48222668e-39,4.63969922e-39,0.00000000e+00,0.00000000e+00
6.81873703e+01,4.20389539e-41,7.84727140e-41,0.00000000e+00,0.00000000e+00
6.96639481e+01,0.00000000e+00,0.00000000e+00,0.00000000e+00,0.00000000e+00
7.11405258e+01,0.00000000e+00,0.00000000e+00,0.00000000e+00,0.00000000e+00
7.26171036e+01,0.00000000e+00,0.00000000e+00,0.00000000e+00,0.00000000e+00
7.40936813e+01,0.00000000e+00,0.00000000e+00,0.00000000e+00,0.00000000e+00
7.55702591e+01,0.00000000e+00,0.00000000e+00,0.00000000e+00,0.00000000e+00
7.70468445e+01,0.00000000e+00,0.00000000e+00,0.00000000e+00,0.00000000e+00
7.85234222e+01,0.00000000e+00,0.00000000e+00,0.00000000e+00,0.00000000e+00
8.00000000e+01,0.00000000e+00,0.00000000e+00,0.00000000e+00,0.00000000e+00
