Height (km), 7_8 um ash conc (g/kg), 15_6 um ash conc (g/kg), 125 um ash conc (g/kg), 1 mm ash conc (g/kg)
0.00000000e+00,0.00000000e+00,0.00000000e+00,0.00000000e+00,0.00000000e+00
3.99999991e-02,2.59627605e-15,5.79262031e-15,3.20321321e-03,6.82460022e+00
7.99999982e-02,3.45414073e-14,8.35832190e-14,6.22052886e-03,7.22977304e+00
1.19999997e-01,7.10872387e-13,1.85199794e-12,8.91664904e-03,7.24442530e+00
1.59999996e-01,2.40993822e-11,5.70216409e-11,1.24157071e-02,7.30370617e+00
2.00000003e-01,9.24976831e-11,2.36354492e-10,1.71387997e-02,7.24410963e+00
2.39999995e-01,1.31030964e-09,3.79398202e-09,2.26273630e-02,7.26381922e+00
2.80000001e-01,5.37617018e-09,1.64388609e-08,2.98830792e-02,7.26098824e+00
3.19999993e-01,2.71262373e-08,8.83411602e-08,3.73298712e-02,7.35537577e+00
3.60000014e-01,1.03895466e-07,3.49956167e-07,4.85057011e-02,7.26791620e+00
4.00000006e-01,3.70966745e-07,1.37432380e-06,5.86687662e-02,7.44479036e+00
4.39999998e-01,9.18581463e-07,3.65199367e-06,7.08796978e-02,7.31303883e+00
4.79999989e-01,1.76535843e-06,7.42299062e-06,8.22745711e-02,7.53407288e+00
5.19999981e-01,4.50575226e-06,1.79042036e-05,9.68785435e-02,7.39241076e+00
5.60000002e-01,8.22211859e-06,3.39131693e-05,1.10788330e-01,7.85414076e+00
6.00000024e-01,1.71116844e-05,6.51309820e-05,1.28975913e-01,7.79364061e+00
6.41029537e-01,4.04502789e-05,1.57133923e-04,1.54757142e-01,8.47092628e+00
6.83115125e-01,6.53741226e-05,2.39358909e-04,1.83951810e-01,8.33851814e+00
7.26283848e-01,1.55111920e-04,4.96428460e-04,2.24261120e-01,8.84468651e+00
7.70563781e-01,2.18499772e-04,7.08066626e-04,2.75134325e-01,8.93310928e+00
8.15983355e-01,4.87048383e-04,1.46247132e-03,3.39174449e-01,9.90363121e+00
8.62571895e-01,8.33924336e-04,2.27429508e-03,4.21650231e-01,9.84684181e+00
9.10359621e-01,1.58704375e-03,3.92573979e-03,5.19825697e-01,1.05887051e+01
9.59377348e-01,2.36426643e-03,5.45264268e-03,6.36721373e-01,1.05308418e+01
1.00965667e+00,3.60732409e-03,7.81729911e-03,7.71820366e-01,1.09818592e+01
1.06123006e+00,5.57859801e-03,1.10507393e-02,9.26255107e-01,1.16261263e+01
1.11413085e+00,8.85476544e-03,1.58447940e-02,1.09376597e+00,1.19573078e+01
1.16839325e+00,1.41342664e-02,2.40685083e-02,1.27214098e+00,1.26571560e+01
1.22405231e+00,2.04158593e-02,3.41748819e-02,1.45183492e+00,1.33537378e+01
1.28114390e+00,2.85681151e-02,4.78115156e-02,1.63479853e+00,1.37316332e+01
1.33970511e+00,3.58023494e-02,5.86141273e-02,1.81404114e+00,1.44930573e+01
1.39977336e+00,2.05761953e+04,2.88068418e+04,1.92865391e+04,1.22244006e+03
1.46138775e+00,2.52119492e+04,3.52574453e+04,2.13812969e+04,1.29470093e+03
1.52458799e+00,1.55073516e+04,2.16840195e+04,1.33409258e+04,9.39891479e+02
1.58941495e+00,1.52711172e+04,2.13675254e+04,1.37504688e+04,1.17554785e+03
1.65591037e+00,1.57338916e+04,2.20190527e+04,1.43389883e+04,1.24875867e+03
1.72411728e+00,1.52978887e+04,2.14067891e+04,1.38205684e+04,1.16334900e+03
1.79407966e+00,1.34106699e+04,1.87634414e+04,1.19895605e+04,9.99225708e+02
1.86584306e+00,1.13509785e+04,1.58820576e+04,1.01630566e+04,8.99670288e+02
1.93945324e+00,1.02753047e+04,1.43803135e+04,9.33712500e+03,9.16477051e+02
2.01495814e+00,1.04095137e+04,1.45731836e+04,9.68707227e+03,1.07499780e+03
2.09240627e+00,1.17365430e+04,1.64369121e+04,1.12235371e+04,1.39082983e+03
2.17184782e+00,1.41779551e+04,1.98615430e+04,1.38822139e+04,1.88439783e+03
2.25333428e+00,1.73337520e+04,2.42864805e+04,1.72717090e+04,2.47140015e+03
2.33691788e+00,2.01803945e+04,2.82761230e+04,2.02577695e+04,2.89233789e+03
2.42265272e+00,2.17167910e+04,3.04267910e+04,2.17350410e+04,2.96829443e+03
2.51059437e+00,2.18092852e+04,3.05525898e+04,2.16273457e+04,2.77213770e+03
2.60079956e+00,2.09012930e+04,2.92759824e+04,2.04569297e+04,2.44449341e+03
2.69332647e+00,1.93389062e+04,2.70831133e+04,1.86637910e+04,2.08957617e+03
2.78823495e+00,1.75607207e+04,2.45896367e+04,1.67465664e+04,1.77970178e+03
2.88558602e+00,1.60390264e+04,2.24566445e+04,1.51435312e+04,1.55163733e+03
2.98544264e+00,1.47952998e+04,2.07139766e+04,1.38721172e+04,1.40237390e+03
3.08786964e+00,1.39929355e+04,1.95904863e+04,1.30885742e+04,1.33661340e+03
3.19293284e+00,1.37134355e+04,1.91996562e+04,1.28335693e+04,1.34052478e+03
3.30070019e+00,1.36099531e+04,1.90555645e+04,1.27660801e+04,1.37110999e+03
3.41124129e+00,1.35565762e+04,1.89814629e+04,1.27444561e+04,1.40473523e+03
3.52462745e+00,1.33762480e+04,1.87292070e+04,1.25889688e+04,1.41518665e+03
3.64093208e+00,1.29627471e+04,1.81506914e+04,1.22267207e+04,1.40740979e+03
3.76023054e+00,1.25433877e+04,1.75643145e+04,1.18740293e+04,1.40401367e+03
3.88259912e+00,1.22389346e+04,1.71391367e+04,1.16463242e+04,1.42182190e+03
4.00811720e+00,1.21439785e+04,1.70074570e+04,1.16287148e+04,1.46200012e+03
4.13686609e+00,1.24078398e+04,1.73782363e+04,1.19554736e+04,1.54120740e+03
4.26892853e+00,1.29785039e+04,1.81786152e+04,1.25800420e+04,1.64658508e+03
4.40439081e+00,1.39300137e+04,1.95122578e+04,1.35725625e+04,1.80617444e+03
4.54333878e+00,1.52222852e+04,2.13228867e+04,1.48887949e+04,1.99086182e+03
4.68586397e+00,1.64931387e+04,2.31033047e+04,1.61814824e+04,2.17908374e+03
4.83205652e+00,1.74986230e+04,2.45118613e+04,1.72066016e+04,2.30706226e+03
4.98201227e+00,1.80909297e+04,2.53412930e+04,1.77998281e+04,2.36446948e+03
5.13582754e+00,1.82645117e+04,2.55838496e+04,1.79508711e+04,2.33181738e+03
5.29360199e+00,1.81720332e+04,2.54535371e+04,1.78133047e+04,2.25679956e+03
5.45543718e+00,1.81175996e+04,2.53759824e+04,1.76748242e+04,2.16058325e+03
5.62143755e+00,1.81208867e+04,2.53789961e+04,1.75736953e+04,2.08143286e+03
5.79171038e+00,1.82884805e+04,2.56114180e+04,1.75959570e+04,1.99989526e+03
5.96636629e+00,1.80815137e+04,2.53191250e+04,1.72501836e+04,1.90315979e+03
6.14551687e+00,1.75339219e+04,2.45504668e+04,1.66088145e+04,1.78934595e+03
6.32927942e+00,1.63681172e+04,2.29163184e+04,1.53910352e+04,1.63029675e+03
6.51777077e+00,1.48977314e+04,2.08579727e+04,1.39853408e+04,1.49758716e+03
6.71111441e+00,1.44550273e+04,2.02386641e+04,1.35694385e+04,1.47088574e+03
6.90943432e+00,1.38656504e+04,1.94149102e+04,1.30706885e+04,1.45991809e+03
7.11285782e+00,1.51160420e+04,2.11687188e+04,1.43975791e+04,1.68869373e+03
7.32151794e+00,1.76666055e+04,2.47397520e+04,1.68318457e+04,2.00070557e+03
7.53554821e+00,1.57992910e+04,2.21239219e+04,1.50629951e+04,1.83194189e+03
7.75508738e+00,1.65217324e+04,2.31399434e+04,1.59762061e+04,2.05275854e+03
7.98027754e+00,1.90145430e+04,2.66324062e+04,1.84685449e+04,2.39798242e+03
8.21126270e+00,1.76388242e+04,2.47052383e+04,1.71474277e+04,2.18973047e+03
8.44819450e+00,1.40276055e+04,1.96448711e+04,1.35628076e+04,1.67627063e+03
8.69122219e+00,1.42298965e+04,1.99262656e+04,1.36901846e+04,1.63138489e+03
8.94050789e+00,1.55573369e+04,2.17825625e+04,1.48699697e+04,1.72328516e+03
9.19620800e+00,1.55910400e+04,2.18304238e+04,1.49294346e+04,1.73765796e+03
9.45849037e+00,1.58968779e+04,2.22569082e+04,1.51225479e+04,1.69158386e+03
9.72752285e+00,1.23888018e+04,1.73442949e+04,1.17313408e+04,1.28236365e+03
1.00034800e+01,9.98236328e+03,1.39769580e+04,9.53150391e+03,1.06806799e+03
1.02865391e+01,1.13701904e+04,1.59155215e+04,1.06880547e+04,1.14671863e+03
1.05768833e+01,1.12755889e+04,1.57822549e+04,1.06174541e+04,1.19132800e+03
1.08747025e+01,1.27310801e+04,1.78254883e+04,1.22460771e+04,1.48388696e+03
1.11801853e+01,1.31044883e+04,1.83501602e+04,1.26703574e+04,1.53400745e+03
1.14935322e+01,8.67584961e+03,1.21497441e+04,8.44168848e+03,1.00120062e+03
1.18149433e+01,5.96729932e+03,8.35925977e+03,5.92059424e+03,7.01748901e+02
1.21446266e+01,6.72047363e+03,9.41258008e+03,6.59000391e+03,7.44494751e+02
1.24827967e+01,7.15068018e+03,1.00135908e+04,6.96355762e+03,7.82145569e+02
1.28296700e+01,7.58698926e+03,1.06244961e+04,7.39389209e+03,8.36335510e+02
1.31854706e+01,7.01872461e+03,9.83109668e+03,6.91193018e+03,7.79498718e+02
1.35504293e+01,5.87691211e+03,8.23349121e+03,5.83732666e+03,6.47111450e+02
1.39247818e+01,5.42298047e+03,7.59851123e+03,5.42712256e+03,6.00617859e+02
1.43087692e+01,5.00714648e+03,7.02051465e+03,5.13467969e+03,5.84541992e+02
1.47026405e+01,5.32891211e+03,7.47304980e+03,5.37736182e+03,5.91577576e+02
1.51066484e+01,6.88025439e+03,9.64390527e+03,6.63218213e+03,6.84700684e+02
1.55210552e+01,8.22917383e+03,1.15304346e+04,7.74462207e+03,7.84995789e+02
1.59461288e+01,8.48883887e+03,1.18941865e+04,7.96415771e+03,7.94104980e+02
1.63821430e+01,8.44114258e+03,1.18270781e+04,7.84505420e+03,7.29133606e+02
1.68293781e+01,8.32826465e+03,1.16668486e+04,7.62123975e+03,6.50240967e+02
1.72881241e+01,8.24576270e+03,1.15453252e+04,7.16136377e+03,5.98875305e+02
1.77586803e+01,8.15331299e+03,1.13935400e+04,6.72972266e+03,5.71379761e+02
1.82413464e+01,8.32968066e+03,1.16274600e+04,6.57334521e+03,5.45273071e+02
1.87364349e+01,8.54890039e+03,1.19259834e+04,6.54906641e+03,5.37538818e+02
1.92442665e+01,9.16824609e+03,1.27872393e+04,7.26844482e+03,6.38927368e+02
1.97651691e+01,9.84605078e+03,1.37389092e+04,8.01990430e+03,6.74224182e+02
2.02994785e+01,7.13636768e+03,9.95071875e+03,5.49006055e+03,3.87460449e+02
2.08475418e+01,3.44038354e+03,4.79015088e+03,2.51558594e+03,1.59136444e+02
2.14097099e+01,3.12287158e+03,4.35147900e+03,2.33456689e+03,1.32587158e+02
2.19863453e+01,3.20792993e+03,4.47254883e+03,2.36003564e+03,1.30960358e+02
2.25778236e+01,2.83426782e+03,3.95192700e+03,2.07000049e+03,1.30389481e+02
2.31845264e+01,2.43215894e+03,3.39151978e+03,1.79632629e+03,1.20342758e+02
2.38068466e+01,1.85673035e+03,2.58925171e+03,1.37109058e+03,7.80846252e+01
2.44451809e+01,1.19817480e+03,1.66921704e+03,7.98223572e+02,1.60342979e+01
2.50999470e+01,3.93880554e+02,5.45463440e+02,1.52709167e+02,1.02291703e-02
2.57715645e+01,2.86404343e+01,3.86588860e+01,2.32854843e+00,1.36854853e-02
2.64604683e+01,1.78083172e+01,2.41561985e+01,1.78578305e+00,1.93010143e-04
2.71671047e+01,1.27485294e+01,1.71611195e+01,7.34907925e-01,4.12627151e-06
2.78919277e+01,5.58750820e+00,7.43872833e+00,1.39676422e-01,9.24269784e-07
2.86354065e+01,6.83259964e-01,8.75350416e-01,3.02691478e-03,2.04638383e-07
2.93980217e+01,2.29362741e-01,2.90174752e-01,6.43688370e-04,1.46200037e-07
3.01802654e+01,9.37156528e-02,1.18527919e-01,3.33218777e-04,6.55435599e-08
3.09826431e+01,1.34466812e-02,1.66460089e-02,4.04663915e-05,1.42061136e-08
3.18056717e+01,7.58062757e-04,8.84917681e-04,4.42126463e-07,4.81244822e-10
3.26498833e+01,1.63396398e-04,1.89765400e-04,4.40656542e-08,8.61776206e-11
3.35158234e+01,1.87359310e-05,2.11604965e-05,1.01511137e-08,9.09979644e-12
3.44040565e+01,1.26239357e-07,1.37660649e-07,4.35010389e-10,6.06755179e-14
3.53151436e+01,3.21627880e-09,3.56124508e-09,4.89214138e-12,1.34916551e-15
3.62496834e+01,1.21807564e-10,1.41341133e-10,2.52884438e-13,6.79684714e-17
3.72082787e+01,2.74011673e-12,3.28262699e-12,5.06174184e-15,4.61709781e-19
3.81915474e+01,1.17876032e-13,1.34271527e-13,2.78593980e-16,9.99839767e-20
3.92001228e+01,2.61016697e-15,3.09744978e-15,6.61261727e-19,1.53070747e-22
4.02346535e+01,7.80386608e-17,9.38937279e-17,1.79912378e-19,5.09697357e-23
4.12958107e+01,1.96456895e-19,2.13539855e-19,2.34667202e-21,1.40825923e-26
4.23842850e+01,3.63020910e-20,3.72561728e-20,1.37118461e-23,3.39306640e-27
4.35007744e+01,2.89888018e-23,3.45469012e-23,3.55188197e-25,2.21048177e-30
4.46459999e+01,1.41855433e-24,1.35504413e-24,5.57845416e-28,8.25805705e-32
4.58207016e+01,3.40586998e-27,4.22784378e-27,3.16958958e-29,7.78631754e-34
4.70256386e+01,3.96053073e-28,4.20855752e-28,5.79883024e-31,2.12001049e-34
4.82615852e+01,8.71625300e-31,1.07696836e-30,1.17615836e-32,2.05497617e-37
4.95293465e+01,1.21853484e-31,1.16309618e-31,2.28623435e-34,7.83942413e-38
5.08297386e+01,4.56570133e-34,1.19875738e-33,3.67213236e-36,1.06498683e-40
5.21635971e+01,1.73772297e-34,1.87480880e-34,4.56908767e-37,8.54792063e-41
5.35317917e+01,2.47785980e-37,4.66773909e-37,2.49711386e-39,0.00000000e+00
5.49351997e+01,9.23077337e-38,9.74743212e-38,2.12997367e-40,0.00000000e+00
5.63747253e+01,1.33123354e-40,2.01786979e-40,0.00000000e+00,0.00000000e+00
5.78513031e+01,2.80259693e-41,3.36311631e-41,0.00000000e+00,0.00000000e+00
5.93278885e+01,0.00000000e+00,0.00000000e+00,0.00000000e+00,0.00000000e+00
6.08044662e+01,0.00000000e+00,0.00000000e+00,0.00000000e+00,0.00000000e+00
6.22810478e+01,0.00000000e+00,0.00000000e+00,0.00000000e+00,0.00000000e+00
6.37576256e+01,0.00000000e+00,0.00000000e+00,0.00000000e+00,0.00000000e+00
6.52341995e+01,0.00000000e+00,0.00000000e+00,0.00000000e+00,0.00000000e+00
6.67107849e+01,0.00000000e+00,0.00000000e+00,0.00000000e+00,0.00000000e+00
6.81873703e+01,0.00000000e+00,0.00000000e+00,0.00000000e+00,0.00000000e+00
6.96639481e+01,0.00000000e+00,0.00000000e+00,0.00000000e+00,0.00000000e+00
7.11405258e+01,0.00000000e+00,0.00000000e+00,0.00000000e+00,0.00000000e+00
7.26171036e+01,0.00000000e+00,0.00000000e+00,0.00000000e+00,0.00000000e+00
7.40936813e+01,0.00000000e+00,0.00000000e+00,0.00000000e+00,0.00000000e+00
7.55702591e+01,0.00000000e+00,0.00000000e+00,0.00000000e+00,0.00000000e+00
7.70468445e+01,0.00000000e+00,0.00000000e+00,0.00000000e+00,0.00000000e+00
7.85234222e+01,0.00000000e+00,0.00000000e+00,0.00000000e+00,0.00000000e+00
8.00000000e+01,0.00000000e+00,0.00000000e+00,0.00000000e+00,0.00000000e+00
