Height (km), 7_8 um ash conc (g/kg), 15_6 um ash conc (g/kg), 125 um ash conc (g/kg), 1 mm ash conc (g/kg)
0.00000000e+00,0.00000000e+00,0.00000000e+00,0.00000000e+00,0.00000000e+00
3.99999991e-02,2.01180086e-10,4.62324262e-10,9.12002027e-02,8.74696159e+00
7.99999982e-02,7.43198125e-09,1.94023659e-08,1.13079771e-01,8.82363033e+00
1.19999997e-01,3.30157874e-08,8.89877185e-08,1.22634225e-01,8.87251186e+00
1.59999996e-01,1.14841363e-07,3.13670142e-07,1.33299872e-01,8.95061016e+00
2.00000003e-01,3.20921004e-07,8.90387582e-07,1.41328126e-01,9.03875542e+00
2.39999995e-01,8.39202698e-07,2.30178512e-06,1.48819223e-01,9.11779594e+00
2.80000001e-01,1.81751534e-06,4.82551513e-06,1.54305279e-01,9.23069668e+00
3.19999993e-01,3.44532259e-06,9.04944682e-06,1.58360586e-01,9.33079720e+00
3.60000014e-01,6.82239033e-06,1.72201144e-05,1.62478447e-01,9.44175434e+00
4.00000006e-01,1.26341902e-05,3.05757821e-05,1.65507302e-01,9.52210999e+00
4.39999998e-01,2.39300352e-05,5.44849863e-05,1.70436412e-01,9.61502361e+00
4.79999989e-01,3.57594181e-05,8.05080417e-05,1.74116969e-01,9.72532654e+00
5.19999981e-01,5.67109601e-05,1.28247339e-04,1.80947348e-01,9.80681324e+00
5.60000002e-01,1.03266051e-04,2.26912627e-04,1.85185730e-01,9.91344357e+00
6.00000024e-01,1.47255632e-04,3.22386506e-04,1.92362577e-01,1.00512295e+01
6.41029537e-01,2.73291720e-04,5.95416117e-04,1.98738411e-01,1.01688519e+01
6.83115125e-01,3.95541545e-04,8.67863302e-04,2.05331296e-01,1.02747040e+01
7.26283848e-01,7.20494078e-04,1.50718831e-03,2.21474916e-01,1.04155006e+01
7.70563781e-01,1.08617183e-03,2.27160123e-03,2.35245958e-01,1.05445547e+01
8.15983355e-01,1.89253013e-03,3.88205983e-03,2.58994222e-01,1.06608639e+01
8.62571895e-01,2.98042782e-03,5.96852042e-03,2.83447713e-01,1.07984686e+01
9.10359621e-01,5.22050541e-03,9.85369273e-03,3.12115669e-01,1.10139217e+01
9.59377348e-01,7.95047358e-03,1.43631315e-02,3.40182871e-01,1.12591333e+01
1.00965667e+00,1.09942183e-02,1.90588348e-02,3.70800048e-01,1.12742853e+01
1.06123006e+00,1.45447459e-02,2.41944827e-02,3.97200912e-01,1.16061153e+01
1.11413085e+00,1.97403058e-02,3.17296200e-02,4.23914164e-01,1.16586781e+01
1.16839325e+00,2.77088098e-02,4.34009098e-02,4.35025930e-01,1.22113228e+01
1.22405231e+00,3.83381136e-02,5.80469072e-02,4.63546276e-01,1.22194242e+01
1.28114390e+00,5.18491790e-02,7.67167732e-02,4.95339394e-01,1.30683880e+01
1.33970511e+00,6.46435395e-02,9.41811651e-02,5.50370216e-01,1.28941479e+01
1.39977336e+00,2.04691289e+04,2.86555977e+04,1.90863633e+04,1.13828796e+03
1.46138775e+00,2.39646172e+04,3.35146875e+04,2.04142461e+04,1.23384351e+03
1.52458799e+00,1.54856152e+04,2.16547656e+04,1.33390449e+04,9.13606567e+02
1.58941495e+00,1.48678750e+04,2.08010957e+04,1.32536016e+04,1.06024658e+03
1.65591037e+00,1.44584980e+04,2.02304375e+04,1.29777773e+04,1.06981409e+03
1.72411728e+00,1.33507744e+04,1.86801680e+04,1.19625664e+04,9.99583435e+02
1.79407966e+00,1.17442764e+04,1.64326211e+04,1.05314199e+04,9.16608398e+02
1.86584306e+00,1.04971328e+04,1.46897559e+04,9.50334180e+03,8.95175598e+02
1.93945324e+00,1.02015928e+04,1.42802363e+04,9.41517188e+03,9.92789307e+02
2.01495814e+00,1.09841855e+04,1.53812305e+04,1.04013184e+04,1.22803247e+03
2.09240627e+00,1.27916016e+04,1.79175996e+04,1.24048955e+04,1.60298926e+03
2.17184782e+00,1.55371006e+04,2.17676406e+04,1.53524082e+04,2.11671509e+03
2.25333428e+00,1.87714805e+04,2.63011836e+04,1.87450820e+04,2.61735620e+03
2.33691788e+00,2.09739414e+04,2.93850840e+04,2.09018984e+04,2.82241675e+03
2.42265272e+00,2.11353398e+04,2.96079727e+04,2.09210000e+04,2.69585229e+03
2.51059437e+00,2.01023750e+04,2.81579160e+04,1.97209980e+04,2.40450635e+03
2.60079956e+00,1.85811641e+04,2.60235039e+04,1.80060234e+04,2.06184668e+03
2.69332647e+00,1.67331094e+04,2.34323652e+04,1.60340254e+04,1.74783228e+03
2.78823495e+00,1.53942188e+04,2.15556270e+04,1.46264033e+04,1.54224182e+03
2.88558602e+00,1.44988047e+04,2.03007578e+04,1.36943154e+04,1.42792151e+03
2.98544264e+00,1.39879180e+04,1.95852734e+04,1.31779043e+04,1.37602612e+03
3.08786964e+00,1.41706973e+04,1.98415000e+04,1.33370732e+04,1.41376147e+03
3.19293284e+00,1.45689824e+04,2.03995117e+04,1.37126719e+04,1.48336719e+03
3.30070019e+00,1.46762373e+04,2.05498105e+04,1.38245020e+04,1.53660266e+03
3.41124129e+00,1.45716367e+04,2.04029844e+04,1.37202900e+04,1.54398059e+03
3.52462745e+00,1.39765020e+04,1.95693828e+04,1.31540303e+04,1.50619531e+03
3.64093208e+00,1.30767070e+04,1.83098359e+04,1.23272939e+04,1.43341272e+03
3.76023054e+00,1.21155918e+04,1.69648672e+04,1.14616621e+04,1.36714514e+03
3.88259912e+00,1.13650645e+04,1.59158076e+04,1.08442578e+04,1.34208667e+03
4.00811720e+00,1.13656416e+04,1.59185596e+04,1.09381074e+04,1.38247363e+03
4.13686609e+00,1.17935186e+04,1.65182598e+04,1.13772354e+04,1.44298401e+03
4.26892853e+00,1.21915781e+04,1.70772578e+04,1.18448242e+04,1.54669897e+03
4.40439081e+00,1.37019033e+04,1.91963594e+04,1.34885469e+04,1.82680334e+03
4.54333878e+00,1.65249062e+04,2.31522480e+04,1.63263721e+04,2.20646509e+03
4.68586397e+00,1.72183438e+04,2.41214824e+04,1.69540215e+04,2.27186377e+03
4.83205652e+00,1.70937031e+04,2.39466641e+04,1.68620195e+04,2.27312061e+03
4.98201227e+00,1.70847207e+04,2.39332441e+04,1.68258320e+04,2.23414014e+03
5.13582754e+00,1.64282812e+04,2.30122812e+04,1.61069111e+04,2.07143872e+03
5.29360199e+00,1.54594785e+04,2.16531797e+04,1.50551924e+04,1.86496448e+03
5.45543718e+00,1.48316621e+04,2.07719004e+04,1.43436514e+04,1.72161902e+03
5.62143755e+00,1.45268359e+04,2.03433438e+04,1.39614385e+04,1.63330896e+03
5.79171038e+00,1.43681270e+04,2.01197793e+04,1.37359160e+04,1.58387048e+03
5.96636629e+00,1.43017119e+04,2.00257793e+04,1.36080732e+04,1.54644800e+03
6.14551687e+00,1.40734766e+04,1.97049238e+04,1.33168096e+04,1.49048364e+03
6.32927942e+00,1.31886025e+04,1.84647578e+04,1.24188848e+04,1.38056909e+03
6.51777077e+00,1.20295078e+04,1.68414805e+04,1.13022373e+04,1.26805127e+03
6.71111441e+00,1.08250947e+04,1.51553301e+04,1.01800576e+04,1.16752795e+03
6.90943432e+00,9.83599121e+03,1.37709053e+04,9.28468164e+03,1.09550732e+03
7.11285782e+00,9.45194922e+03,1.32335820e+04,8.96192188e+03,1.08397754e+03
7.32151794e+00,9.40718164e+03,1.31714961e+04,8.96266016e+03,1.10731348e+03
7.53554821e+00,9.34990527e+03,1.30921533e+04,8.95868457e+03,1.12685474e+03
7.75508738e+00,9.22620410e+03,1.29197041e+04,8.88901074e+03,1.13230200e+03
7.98027754e+00,8.75858496e+03,1.22652197e+04,8.48087598e+03,1.09131873e+03
8.21126270e+00,8.47208203e+03,1.18639023e+04,8.22280859e+03,1.05324463e+03
8.44819450e+00,8.71009277e+03,1.21959746e+04,8.41804395e+03,1.05829846e+03
8.69122219e+00,8.98530273e+03,1.25816904e+04,8.71631836e+03,1.10553650e+03
8.94050789e+00,9.87829785e+03,1.38328271e+04,9.60572168e+03,1.20029956e+03
9.19620800e+00,9.44160352e+03,1.32216621e+04,9.19425781e+03,1.12654895e+03
9.45849037e+00,7.59631348e+03,1.06384688e+04,7.45752295e+03,9.25199219e+02
9.72752285e+00,6.39954980e+03,8.96333789e+03,6.36344434e+03,8.20591248e+02
1.00034800e+01,7.13688721e+03,9.99499219e+03,7.06856543e+03,8.99743347e+02
1.02865391e+01,9.03604492e+03,1.26520869e+04,8.81065430e+03,1.07432397e+03
1.05768833e+01,1.04733867e+04,1.46665342e+04,1.02500664e+04,1.26672266e+03
1.08747025e+01,1.07021826e+04,1.49923633e+04,1.06572666e+04,1.36223621e+03
1.11801853e+01,9.07827441e+03,1.27252031e+04,9.35283105e+03,1.22531702e+03
1.14935322e+01,7.80067285e+03,1.09386641e+04,8.24442871e+03,1.02056116e+03
1.18149433e+01,7.33241406e+03,1.02863428e+04,7.83018164e+03,9.18117859e+02
1.21446266e+01,7.37521582e+03,1.03510625e+04,7.88867432e+03,9.18955872e+02
1.24827967e+01,7.29703662e+03,1.02418994e+04,7.67866553e+03,8.39072021e+02
1.28296700e+01,5.82651074e+03,8.18068408e+03,6.11400000e+03,6.03943848e+02
1.31854706e+01,4.21828076e+03,5.92689844e+03,4.58509277e+03,4.31518677e+02
1.35504293e+01,3.98211157e+03,5.59644971e+03,4.43864160e+03,4.11496887e+02
1.39247818e+01,5.24504248e+03,7.36599414e+03,5.56773145e+03,5.18374023e+02
1.43087692e+01,7.68134766e+03,1.07719375e+04,7.58985742e+03,6.76365479e+02
1.47026405e+01,9.29895312e+03,1.30318389e+04,8.87847461e+03,7.47396057e+02
1.51066484e+01,9.06633203e+03,1.27186426e+04,8.72758984e+03,7.20211609e+02
1.55210552e+01,8.71024609e+03,1.22552793e+04,8.50700000e+03,6.94480225e+02
1.59461288e+01,9.74146387e+03,1.37266836e+04,8.65023340e+03,7.00768005e+02
1.63821430e+01,1.06143594e+04,1.49173809e+04,8.14190918e+03,6.61889893e+02
1.68293781e+01,1.05428779e+04,1.47719785e+04,7.02402539e+03,5.57947327e+02
1.72881241e+01,1.01876904e+04,1.42041045e+04,5.95708154e+03,4.40877075e+02
1.77586803e+01,9.53011328e+03,1.32073818e+04,5.00071191e+03,3.70890930e+02
1.82413464e+01,8.48386816e+03,1.17060176e+04,4.45008350e+03,3.54354126e+02
1.87364349e+01,7.75893066e+03,1.07022012e+04,4.39704736e+03,3.43651520e+02
1.92442665e+01,7.64000488e+03,1.05714414e+04,4.77426709e+03,3.33049622e+02
1.97651691e+01,7.22608789e+03,1.00129854e+04,4.71487451e+03,3.04939301e+02
2.02994785e+01,6.24182129e+03,8.65861719e+03,4.19102002e+03,2.73286560e+02
2.08475418e+01,5.32012695e+03,7.39058350e+03,3.72397192e+03,2.73697510e+02
2.14097099e+01,4.78268506e+03,6.65872217e+03,3.70247192e+03,2.78624695e+02
2.19863453e+01,3.70760083e+03,5.16423730e+03,2.73006567e+03,1.45952026e+02
2.25778236e+01,1.50008752e+03,2.08253564e+03,8.77319458e+02,2.29886627e+01
2.31845264e+01,2.98106873e+02,4.09441010e+02,9.48741302e+01,2.71889001e-01
2.38068466e+01,8.26121445e+01,1.11601372e+02,5.79983759e+00,2.66591506e-03
2.44451809e+01,4.14025574e+01,5.56045380e+01,1.77072799e+00,1.15455314e-05
2.50999470e+01,2.18846054e+01,2.92954273e+01,9.14617598e-01,7.04400190e-06
2.57715645e+01,1.09976826e+01,1.47356462e+01,6.04124486e-01,5.72769750e-06
2.64604683e+01,3.99462581e+00,5.35991240e+00,2.24742860e-01,4.53322627e-06
2.71671047e+01,6.11080229e-01,8.07247221e-01,7.88662862e-03,8.28173029e-07
2.78919277e+01,8.94020721e-02,1.14744887e-01,2.97550614e-05,1.09336462e-07
2.86354065e+01,2.68732850e-02,3.41855623e-02,5.43985743e-06,3.47134268e-08
2.93980217e+01,5.12284879e-03,6.41003205e-03,1.22907738e-06,8.23274515e-09
3.01802654e+01,3.05027148e-04,3.72087525e-04,5.47729314e-07,8.20028379e-10
3.09826431e+01,2.89109357e-06,3.36023027e-06,3.41424240e-08,7.19924554e-12
3.18056717e+01,1.24644799e-07,1.60671902e-07,5.92145555e-10,2.72527687e-13
3.26498833e+01,9.48479872e-09,1.16150440e-08,2.97431905e-11,1.30000982e-14
3.35158234e+01,4.27344243e-10,5.21891530e-10,1.34372179e-12,1.12126791e-15
3.44040565e+01,3.99153930e-12,5.13041085e-12,2.50760851e-14,8.16306959e-17
3.53151436e+01,1.42971369e-13,1.94525263e-13,3.91077229e-16,1.11173746e-18
3.62496834e+01,2.84268450e-15,4.21008875e-15,1.08585604e-17,7.78372110e-21
3.72082787e+01,5.20137323e-17,9.54072567e-17,1.51478535e-19,3.32031681e-22
3.81915474e+01,6.40845617e-19,1.22992658e-18,3.35187640e-21,6.05134885e-24
3.92001228e+01,1.15746519e-20,1.85501973e-20,8.15245967e-23,9.07044348e-26
4.02346535e+01,3.52455353e-22,4.44196443e-22,1.43808534e-24,1.06916739e-27
4.12958107e+01,1.20724875e-23,1.56745715e-23,2.61887060e-26,2.10794417e-29
4.23842850e+01,2.92956168e-25,3.32659661e-25,6.49480296e-28,5.02196671e-31
4.35007744e+01,6.17050505e-27,7.21856724e-27,1.45558460e-29,7.02716694e-33
4.46459999e+01,1.88710259e-28,2.27368067e-28,3.86243957e-31,3.11169610e-34
4.58207016e+01,6.84247503e-31,7.02494702e-31,3.51287854e-33,1.27693329e-36
4.70256386e+01,6.47971865e-32,9.20764314e-32,3.35139087e-34,2.22674734e-37
4.82615852e+01,2.32000326e-35,1.32537031e-35,1.53767283e-37,3.23699945e-40
4.95293465e+01,2.56005328e-36,4.23510547e-36,2.30387481e-38,5.60519386e-42
5.08297386e+01,1.89315423e-39,3.06681187e-37,7.69312857e-40,0.00000000e+00
5.21635971e+01,2.45227231e-40,4.35803822e-40,0.00000000e+00,0.00000000e+00
5.35317917e+01,7.00649232e-42,4.06376555e-41,0.00000000e+00,0.00000000e+00
5.49351997e+01,4.20389539e-42,7.00649232e-42,0.00000000e+00,0.00000000e+00
5.63747253e+01,0.00000000e+00,0.00000000e+00,0.00000000e+00,0.00000000e+00
5.78513031e+01,0.00000000e+00,0.00000000e+00,0.00000000e+00,0.00000000e+00
5.93278885e+01,0.00000000e+00,0.00000000e+00,0.00000000e+00,0.00000000e+00
6.08044662e+01,0.00000000e+00,0.00000000e+00,0.00000000e+00,0.00000000e+00
6.22810478e+01,0.00000000e+00,0.00000000e+00,0.00000000e+00,0.00000000e+00
6.37576256e+01,0.00000000e+00,0.00000000e+00,0.00000000e+00,0.00000000e+00
6.52341995e+01,0.00000000e+00,0.00000000e+00,0.00000000e+00,0.00000000e+00
6.67107849e+01,0.00000000e+00,0.00000000e+00,0.00000000e+00,0.00000000e+00
6.81873703e+01,0.00000000e+00,0.00000000e+00,0.00000000e+00,0.00000000e+00
6.96639481e+01,0.00000000e+00,0.00000000e+00,0.00000000e+00,0.00000000e+00
7.11405258e+01,0.00000000e+00,0.00000000e+00,0.00000000e+00,0.00000000e+00
7.26171036e+01,0.00000000e+00,0.00000000e+00,0.00000000e+00,0.00000000e+00
7.40936813e+01,0.00000000e+00,0.00000000e+00,0.00000000e+00,0.00000000e+00
7.55702591e+01,0.00000000e+00,0.00000000e+00,0.00000000e+00,0.00000000e+00
7.70468445e+01,0.00000000e+00,0.00000000e+00,0.00000000e+00,0.00000000e+00
7.85234222e+01,0.00000000e+00,0.00000000e+00,0.00000000e+00,0.00000000e+00
8.00000000e+01,0.00000000e+00,0.00000000e+00,0.00000000e+00,0.00000000e+00
