Height (km), 7_8 um ash conc (g/kg), 15_6 um ash conc (g/kg), 125 um ash conc (g/kg), 1 mm ash conc (g/kg)
0.00000000e+00,0.00000000e+00,0.00000000e+00,0.00000000e+00,0.00000000e+00
3.99999991e-02,1.55058860e-05,6.65690313e-05,4.78181809e-01,3.82556953e+01
7.99999982e-02,2.81196681e-05,1.13866736e-04,6.04208410e-01,3.91033669e+01
1.19999997e-01,4.70709238e-05,1.74490619e-04,6.88954771e-01,3.91860847e+01
1.59999996e-01,7.65525692e-05,2.61165173e-04,7.60034084e-01,3.97980118e+01
2.00000003e-01,1.47484272e-04,4.26145678e-04,7.92770624e-01,4.00022850e+01
2.39999995e-01,2.62916059e-04,6.86932588e-04,8.22533548e-01,4.08062477e+01
2.80000001e-01,4.07093583e-04,9.87004722e-04,8.40909362e-01,4.11378059e+01
3.19999993e-01,6.24737935e-04,1.40969874e-03,8.45264673e-01,4.18192978e+01
3.60000014e-01,9.16032819e-04,1.96861615e-03,8.52867186e-01,4.28011436e+01
4.00000006e-01,1.33214577e-03,2.71058711e-03,8.49080920e-01,4.23064880e+01
4.39999998e-01,1.75998628e-03,3.47442529e-03,8.44591856e-01,4.54443054e+01
4.79999989e-01,2.35412084e-03,4.49019857e-03,8.44803631e-01,4.29480438e+01
5.19999981e-01,3.16534168e-03,5.87550690e-03,8.34050059e-01,4.57250328e+01
5.60000002e-01,4.24881978e-03,7.67910900e-03,8.38383734e-01,4.53366508e+01
6.00000024e-01,5.89756109e-03,1.04144812e-02,8.29343081e-01,4.71710396e+01
6.41029537e-01,7.76262209e-03,1.35976952e-02,8.28964949e-01,4.64331703e+01
6.83115125e-01,1.03853215e-02,1.80835295e-02,8.21992338e-01,4.85831757e+01
7.26283848e-01,1.43859759e-02,2.49702968e-02,8.21438551e-01,4.77780991e+01
7.70563781e-01,1.92874037e-02,3.34599577e-02,8.21886301e-01,4.89180527e+01
8.15983355e-01,2.68496703e-02,4.64279763e-02,8.21114540e-01,5.10309830e+01
8.62571895e-01,3.75764519e-02,6.41584024e-02,8.25854242e-01,5.06656418e+01
9.10359621e-01,5.40181771e-02,8.93478468e-02,8.31992805e-01,5.17115173e+01
9.59377348e-01,7.42103904e-02,1.17239259e-01,8.43729317e-01,5.30242844e+01
1.00965667e+00,9.77452770e-02,1.48362845e-01,8.57061982e-01,5.39069023e+01
1.06123006e+00,1.23950981e-01,1.82448253e-01,8.81780207e-01,5.57269287e+01
1.11413085e+00,1.47491336e-01,2.12772399e-01,8.75610173e-01,5.91151810e+01
1.16839325e+00,1.69075921e-01,2.38706812e-01,8.98044169e-01,5.80388718e+01
1.22405231e+00,1.84253484e-01,2.52099603e-01,8.99831295e-01,5.99984970e+01
1.28114390e+00,1.90823808e-01,2.51477391e-01,9.77793455e-01,6.54616776e+01
1.33970511e+00,1.84707835e-01,2.35318631e-01,9.97916341e-01,6.58154526e+01
1.39977336e+00,2.12772129e+04,2.97679102e+04,1.84917402e+04,5.41633362e+02
1.46138775e+00,2.62780898e+04,3.66917188e+04,1.92046406e+04,6.91315552e+02
1.52458799e+00,1.59866895e+04,2.23127656e+04,1.18890488e+04,6.71919800e+02
1.58941495e+00,1.42009180e+04,1.98359922e+04,1.11780420e+04,8.10790710e+02
1.65591037e+00,1.27101895e+04,1.77612930e+04,1.03373867e+04,8.70644653e+02
1.72411728e+00,1.20723008e+04,1.68791602e+04,1.02385078e+04,1.01072418e+03
1.79407966e+00,1.27727539e+04,1.78709414e+04,1.13997773e+04,1.30398962e+03
1.86584306e+00,1.47596387e+04,2.06645938e+04,1.38517969e+04,1.75654138e+03
1.93945324e+00,1.78565527e+04,2.50117480e+04,1.73835703e+04,2.23194922e+03
2.01495814e+00,2.08622695e+04,2.92247305e+04,2.04357031e+04,2.41079785e+03
2.09240627e+00,2.23174082e+04,3.12559297e+04,2.14032578e+04,2.24966968e+03
2.17184782e+00,2.19897617e+04,3.07866367e+04,2.04781680e+04,1.94417981e+03
2.25333428e+00,2.05219258e+04,2.87220977e+04,1.85655547e+04,1.61247437e+03
2.33691788e+00,1.85501504e+04,2.59542773e+04,1.63073828e+04,1.32229077e+03
2.42265272e+00,1.64637070e+04,2.30287148e+04,1.41027285e+04,1.11477527e+03
2.51059437e+00,1.45647637e+04,2.03683945e+04,1.22352832e+04,9.75211792e+02
2.60079956e+00,1.30579248e+04,1.82593281e+04,1.08691562e+04,9.26466309e+02
2.69332647e+00,1.20619629e+04,1.68679238e+04,1.01034023e+04,9.41170959e+02
2.78823495e+00,1.17145000e+04,1.63858867e+04,9.99107910e+03,1.02474609e+03
2.88558602e+00,1.19177920e+04,1.66743398e+04,1.03587715e+04,1.13756702e+03
2.98544264e+00,1.22345254e+04,1.71208828e+04,1.08154668e+04,1.27172412e+03
3.08786964e+00,1.25959727e+04,1.76295938e+04,1.13062041e+04,1.39357520e+03
3.19293284e+00,1.29962061e+04,1.81924102e+04,1.18339082e+04,1.53480322e+03
3.30070019e+00,1.33891611e+04,1.87452031e+04,1.23734941e+04,1.67640369e+03
3.41124129e+00,1.38400938e+04,1.93794336e+04,1.29842725e+04,1.83141785e+03
3.52462745e+00,1.43873994e+04,2.01485684e+04,1.36852578e+04,1.98137964e+03
3.64093208e+00,1.51140527e+04,2.11684688e+04,1.45390176e+04,2.11257520e+03
3.76023054e+00,1.60745117e+04,2.25151426e+04,1.55788291e+04,2.22970093e+03
3.88259912e+00,1.71071055e+04,2.39617305e+04,1.66206895e+04,2.29371460e+03
4.00811720e+00,1.81997578e+04,2.54916328e+04,1.76771289e+04,2.35628101e+03
4.13686609e+00,1.94700059e+04,2.72699668e+04,1.88812676e+04,2.38682666e+03
4.26892853e+00,2.05549023e+04,2.87869453e+04,1.97948262e+04,2.35617554e+03
4.40439081e+00,2.08594609e+04,2.92094023e+04,1.98541328e+04,2.21227417e+03
4.54333878e+00,2.04713750e+04,2.86619707e+04,1.92328750e+04,2.02584314e+03
4.68586397e+00,1.97414219e+04,2.76358691e+04,1.82744004e+04,1.83631323e+03
4.83205652e+00,1.87284395e+04,2.62137305e+04,1.70760801e+04,1.65314832e+03
4.98201227e+00,1.77225547e+04,2.48026953e+04,1.59637881e+04,1.53100867e+03
5.13582754e+00,1.71062852e+04,2.39380605e+04,1.52775625e+04,1.47220923e+03
5.29360199e+00,1.70662910e+04,2.38800703e+04,1.51329189e+04,1.47294250e+03
5.45543718e+00,1.70791328e+04,2.38955469e+04,1.50331738e+04,1.46672986e+03
5.62143755e+00,1.66949961e+04,2.33556992e+04,1.46073887e+04,1.45625989e+03
5.79171038e+00,1.59474590e+04,2.23089062e+04,1.39412031e+04,1.42493286e+03
5.96636629e+00,1.51317871e+04,2.11676914e+04,1.32560469e+04,1.39917688e+03
6.14551687e+00,1.40659844e+04,1.96775703e+04,1.23994395e+04,1.35646912e+03
6.32927942e+00,1.29266709e+04,1.80862012e+04,1.15573066e+04,1.32194861e+03
6.51777077e+00,1.20636484e+04,1.68825156e+04,1.10163711e+04,1.31110364e+03
6.71111441e+00,1.20386074e+04,1.68512598e+04,1.12175420e+04,1.37721338e+03
6.90943432e+00,1.29255918e+04,1.80965391e+04,1.22700566e+04,1.53506201e+03
7.11285782e+00,1.45596992e+04,2.03867227e+04,1.39948242e+04,1.74371021e+03
7.32151794e+00,1.56165449e+04,2.18664531e+04,1.51093613e+04,1.85842896e+03
7.53554821e+00,1.57935225e+04,2.21149883e+04,1.54420391e+04,1.89209412e+03
7.75508738e+00,1.61759609e+04,2.26505645e+04,1.59290361e+04,1.89516370e+03
7.98027754e+00,1.58167412e+04,2.21470391e+04,1.56633809e+04,1.80293384e+03
8.21126270e+00,1.51106025e+04,2.11592383e+04,1.50847539e+04,1.67458911e+03
8.44819450e+00,1.53382314e+04,2.14764199e+04,1.52643887e+04,1.63361218e+03
8.69122219e+00,1.58450791e+04,2.21856074e+04,1.57552715e+04,1.63653467e+03
8.94050789e+00,1.73113340e+04,2.42383672e+04,1.71058828e+04,1.69548999e+03
9.19620800e+00,1.89495781e+04,2.65242637e+04,1.83215195e+04,1.69417175e+03
9.45849037e+00,1.80258809e+04,2.52256543e+04,1.73232949e+04,1.56753308e+03
9.72752285e+00,1.61175508e+04,2.25571328e+04,1.58056533e+04,1.47192017e+03
1.00034800e+01,1.63809287e+04,2.29254238e+04,1.61586670e+04,1.54802930e+03
1.02865391e+01,1.68742227e+04,2.36162051e+04,1.68367480e+04,1.70000696e+03
1.05768833e+01,1.71515820e+04,2.40112227e+04,1.75870996e+04,1.86504419e+03
1.08747025e+01,1.67137832e+04,2.34014004e+04,1.75231055e+04,1.86535461e+03
1.11801853e+01,1.49083232e+04,2.08763691e+04,1.61764678e+04,1.69352063e+03
1.14935322e+01,1.34692734e+04,1.88640469e+04,1.51537705e+04,1.54690234e+03
1.18149433e+01,1.28943340e+04,1.80653379e+04,1.49510107e+04,1.47901636e+03
1.21446266e+01,1.29967666e+04,1.82192012e+04,1.53988662e+04,1.46710205e+03
1.24827967e+01,1.44823008e+04,2.03062559e+04,1.68585781e+04,1.51776184e+03
1.28296700e+01,1.64573867e+04,2.30756680e+04,1.84569902e+04,1.54932007e+03
1.31854706e+01,1.70437793e+04,2.39053848e+04,1.85578672e+04,1.45310547e+03
1.35504293e+01,1.53685244e+04,2.15754922e+04,1.66106738e+04,1.23409351e+03
1.39247818e+01,1.37201113e+04,1.92955859e+04,1.50386035e+04,1.10719714e+03
1.43087692e+01,1.49901611e+04,2.10897070e+04,1.61269453e+04,1.19767297e+03
1.47026405e+01,1.59202559e+04,2.23995586e+04,1.66362637e+04,1.19411499e+03
1.51066484e+01,1.27711865e+04,1.79994062e+04,1.30903740e+04,8.71566956e+02
1.55210552e+01,1.01294609e+04,1.42906172e+04,1.01236328e+04,6.73959351e+02
1.59461288e+01,1.05286016e+04,1.48701289e+04,9.81178711e+03,6.80352234e+02
1.63821430e+01,1.29683926e+04,1.82829062e+04,1.04245215e+04,7.23760681e+02
1.68293781e+01,1.47973438e+04,2.07822656e+04,1.06054756e+04,7.58421448e+02
1.72881241e+01,1.56583086e+04,2.19478125e+04,1.07702744e+04,7.96173340e+02
1.77586803e+01,1.63357461e+04,2.28796113e+04,1.08488213e+04,7.38575562e+02
1.82413464e+01,1.46715723e+04,2.05296934e+04,8.51370020e+03,4.77765869e+02
1.87364349e+01,1.16036797e+04,1.62026191e+04,5.45679541e+03,2.50618637e+02
1.92442665e+01,1.07687148e+04,1.49901758e+04,4.65782715e+03,2.27252121e+02
1.97651691e+01,1.23752129e+04,1.72018828e+04,5.50942139e+03,3.03000336e+02
2.02994785e+01,1.34121133e+04,1.85997949e+04,5.94994678e+03,3.41845642e+02
2.08475418e+01,1.27766797e+04,1.76665352e+04,5.61474023e+03,3.50097839e+02
2.14097099e+01,1.15446699e+04,1.59128457e+04,4.97303516e+03,2.97436005e+02
2.19863453e+01,9.36314258e+03,1.28452734e+04,3.51793604e+03,1.82421417e+02
2.25778236e+01,6.86902539e+03,9.34785059e+03,2.20333032e+03,1.16928215e+02
2.31845264e+01,4.81252637e+03,6.52560303e+03,1.90087708e+03,1.00308365e+02
2.38068466e+01,4.33711719e+03,5.93504492e+03,2.19867651e+03,9.90535583e+01
2.44451809e+01,4.27639307e+03,5.88445557e+03,2.33156543e+03,8.17121735e+01
2.50999470e+01,2.83686523e+03,3.89489551e+03,1.36733752e+03,3.12176208e+01
2.57715645e+01,1.09125085e+03,1.47936243e+03,3.28953949e+02,2.82892418e+00
2.64604683e+01,4.21700958e+02,5.60606506e+02,2.80355549e+01,3.28871902e-05
2.71671047e+01,2.68581818e+02,3.54565826e+02,5.63302040e+00,2.14444808e-05
2.78919277e+01,1.82219971e+02,2.40027588e+02,2.91724181e+00,1.72461187e-05
2.86354065e+01,1.17774521e+02,1.54814774e+02,1.60225344e+00,1.40965958e-05
2.93980217e+01,6.60548248e+01,8.64059753e+01,7.38977373e-01,1.02650283e-05
3.01802654e+01,3.09227524e+01,4.01241226e+01,2.34719232e-01,6.88387536e-06
3.09826431e+01,1.32826719e+01,1.71054745e+01,4.12805825e-02,3.62330093e-06
3.18056717e+01,4.58539152e+00,5.79823875e+00,4.01560450e-03,1.26160762e-06
3.26498833e+01,1.21798539e+00,1.48970199e+00,4.34956775e-04,3.50039215e-07
3.35158234e+01,2.30324447e-01,2.70773590e-01,8.92331882e-05,8.98103281e-08
3.44040565e+01,4.50941958e-02,5.30755557e-02,1.33647300e-05,2.89344833e-08
3.53151436e+01,1.16108563e-02,1.40345348e-02,4.17251204e-06,6.86315138e-09
3.62496834e+01,1.77369767e-03,2.05967552e-03,1.30900889e-06,1.23313115e-09
3.72082787e+01,2.76366743e-04,3.32482450e-04,3.06912710e-07,3.53715196e-10
3.81915474e+01,2.05555370e-05,2.14955926e-05,2.53384975e-08,7.90189181e-12
3.92001228e+01,1.61500429e-06,1.71578745e-06,6.32736796e-09,5.47723976e-13
4.02346535e+01,1.27095205e-07,1.34903217e-07,1.44264900e-09,5.81856950e-14
4.12958107e+01,6.16775653e-09,6.69178002e-09,1.81571719e-11,5.04064182e-15
4.23842850e+01,1.71932385e-10,2.02916489e-10,2.41884898e-12,2.14332661e-16
4.35007744e+01,4.24919301e-12,5.31691531e-12,2.07544783e-13,4.08641781e-18
4.46459999e+01,3.19632260e-13,3.64136997e-13,1.18618951e-14,4.18256665e-19
4.58207016e+01,1.00599096e-14,1.23075141e-14,6.66407353e-16,6.70183671e-20
4.70256386e+01,1.19069073e-15,1.64596872e-15,7.98874029e-17,1.16654519e-20
4.82615852e+01,1.62543161e-16,1.87460303e-16,3.35176707e-18,1.40281734e-21
4.95293465e+01,8.91630638e-18,9.08654760e-18,4.37086679e-21,1.06555999e-22
5.08297386e+01,2.49978143e-19,2.66176226e-19,2.11798904e-22,3.13862885e-24
5.21635971e+01,6.39515841e-23,5.79478415e-23,3.55903630e-24,3.19926382e-28
5.35317917e+01,2.67545371e-24,2.97345814e-24,1.52580564e-25,2.92923201e-29
5.49351997e+01,1.36343206e-26,2.80734087e-26,2.43121519e-27,1.69311830e-30
5.63747253e+01,3.86958302e-28,5.50620819e-28,2.06748534e-29,3.81223809e-32
5.78513031e+01,6.86700929e-30,9.05428266e-30,1.98510433e-31,2.42174382e-34
5.93278885e+01,3.47780289e-32,3.83733137e-32,1.65030095e-33,2.71120429e-36
6.08044662e+01,7.66523703e-34,8.55212915e-34,3.45889873e-35,1.43773222e-38
6.22810478e+01,1.20164401e-35,1.19882329e-35,2.75804976e-37,3.53127213e-40
6.37576256e+01,2.97655434e-37,3.42722561e-37,6.68559497e-39,0.00000000e+00
6.52341995e+01,8.53951284e-39,9.10984132e-39,5.46506401e-41,0.00000000e+00
6.67107849e+01,2.12997367e-40,2.50832425e-40,0.00000000e+00,0.00000000e+00
6.81873703e+01,0.00000000e+00,0.00000000e+00,0.00000000e+00,0.00000000e+00
6.96639481e+01,0.00000000e+00,0.00000000e+00,0.00000000e+00,0.00000000e+00
7.11405258e+01,0.00000000e+00,0.00000000e+00,0.00000000e+00,0.00000000e+00
7.26171036e+01,0.00000000e+00,0.00000000e+00,0.00000000e+00,0.00000000e+00
7.40936813e+01,0.00000000e+00,0.00000000e+00,0.00000000e+00,0.00000000e+00
7.55702591e+01,0.00000000e+00,0.00000000e+00,0.00000000e+00,0.00000000e+00
7.70468445e+01,0.00000000e+00,0.00000000e+00,0.00000000e+00,0.00000000e+00
7.85234222e+01,0.00000000e+00,0.00000000e+00,0.00000000e+00,0.00000000e+00
8.00000000e+01,0.00000000e+00,0.00000000e+00,0.00000000e+00,0.00000000e+00
