Height (km), 7_8 um ash conc (g/kg), 15_6 um ash conc (g/kg), 125 um ash conc (g/kg), 1 mm ash conc (g/kg)
0.00000000e+00,0.00000000e+00,0.00000000e+00,0.00000000e+00,0.00000000e+00
3.99999991e-02,5.00838195e-30,9.49213456e-30,1.21839800e-12,4.18472404e+01
7.99999982e-02,3.04838811e-27,5.70498236e-27,9.80693855e-08,4.32489128e+01
1.19999997e-01,2.78269772e-25,5.40390921e-25,4.29925385e-05,4.38013878e+01
1.59999996e-01,9.15579735e-24,1.78073012e-23,1.66985017e-04,4.49894905e+01
2.00000003e-01,6.65890087e-22,1.32541547e-21,3.42131476e-04,4.48312073e+01
2.39999995e-01,1.15015708e-20,2.33402985e-20,7.77713780e-04,4.55800247e+01
2.80000001e-01,1.26907536e-19,2.61204586e-19,2.56857253e-03,4.56923599e+01
3.19999993e-01,1.14806837e-18,2.37081834e-18,5.46455663e-03,4.67088509e+01
3.60000014e-01,8.05539831e-18,1.67932587e-17,1.17227659e-02,4.71669426e+01
4.00000006e-01,6.24258782e-17,1.30468578e-16,1.97989140e-02,4.89796715e+01
4.39999998e-01,3.23606714e-16,6.85268077e-16,2.89513599e-02,5.20618973e+01
4.79999989e-01,1.66751956e-15,3.56064572e-15,3.88913974e-02,5.28903770e+01
5.19999981e-01,9.68311972e-15,2.06340326e-14,4.88983393e-02,5.80800209e+01
5.60000002e-01,5.11243608e-14,1.10029106e-13,6.89479113e-02,5.69792709e+01
6.00000024e-01,2.26522251e-13,4.95315757e-13,6.98778331e-02,6.19452171e+01
6.41029537e-01,1.56938134e-12,3.35297371e-12,9.51737836e-02,6.06161308e+01
6.83115125e-01,5.29935687e-12,1.18725255e-11,8.66802037e-02,6.61191330e+01
7.26283848e-01,2.56142520e-11,5.43109134e-11,1.09255612e-01,6.44628830e+01
7.70563781e-01,8.69747468e-11,1.90203964e-10,1.11049481e-01,7.00874481e+01
8.15983355e-01,4.34972836e-10,9.17532050e-10,1.39868245e-01,6.87117233e+01
8.62571895e-01,1.12425891e-09,2.49937715e-09,1.47724435e-01,7.74261856e+01
9.10359621e-01,4.59670391e-09,9.59682289e-09,1.59661621e-01,7.71716309e+01
9.59377348e-01,1.18657502e-08,2.60433488e-08,1.85461551e-01,8.55986633e+01
1.00965667e+00,4.58766536e-08,9.94859590e-08,2.47763261e-01,8.78126068e+01
1.06123006e+00,1.81698908e-07,4.19839068e-07,2.36688927e-01,9.49496460e+01
1.11413085e+00,8.78632932e-07,2.93792891e-06,3.79849732e-01,9.97309341e+01
1.16839325e+00,5.16878526e-06,2.12977338e-05,3.10498595e-01,1.06718575e+02
1.22405231e+00,1.71684078e-05,5.73096186e-05,4.56298321e-01,1.07943733e+02
1.28114390e+00,3.04831628e-05,7.89947881e-05,4.24425334e-01,1.17691826e+02
1.33970511e+00,3.89250272e-05,9.31695977e-05,4.86111671e-01,1.17505066e+02
1.39977336e+00,2.07191875e+04,2.90083086e+04,1.94656270e+04,1.27922473e+03
1.46138775e+00,2.61849414e+04,3.66164805e+04,2.20007344e+04,1.40218054e+03
1.52458799e+00,1.51199043e+04,2.11388594e+04,1.29202002e+04,1.03086536e+03
1.58941495e+00,1.47722041e+04,2.06693047e+04,1.33446094e+04,1.31722571e+03
1.65591037e+00,1.55895879e+04,2.18205117e+04,1.44144766e+04,1.51331909e+03
1.72411728e+00,1.62780391e+04,2.27863496e+04,1.51337988e+04,1.57052112e+03
1.79407966e+00,1.62680918e+04,2.27712656e+04,1.50470508e+04,1.53936096e+03
1.86584306e+00,1.54470996e+04,2.16196055e+04,1.41554453e+04,1.40239966e+03
1.93945324e+00,1.40796621e+04,1.97035742e+04,1.27901709e+04,1.28662256e+03
2.01495814e+00,1.25538906e+04,1.75673242e+04,1.13497266e+04,1.15836072e+03
2.09240627e+00,1.11807637e+04,1.56461543e+04,1.01170176e+04,1.10893274e+03
2.17184782e+00,1.01451582e+04,1.41983584e+04,9.23902930e+03,1.07171204e+03
2.25333428e+00,9.51570215e+03,1.33197070e+04,8.76573828e+03,1.10083887e+03
2.33691788e+00,9.34588867e+03,1.30851562e+04,8.75375391e+03,1.18679578e+03
2.42265272e+00,9.81964355e+03,1.37524238e+04,9.39008691e+03,1.36894324e+03
2.51059437e+00,1.11032090e+04,1.55543018e+04,1.08428906e+04,1.65394666e+03
2.60079956e+00,1.32032012e+04,1.85001094e+04,1.31321992e+04,2.09201953e+03
2.69332647e+00,1.60691670e+04,2.25189590e+04,1.62090762e+04,2.60418579e+03
2.78823495e+00,1.94521641e+04,2.72613555e+04,1.97923281e+04,3.18583057e+03
2.88558602e+00,2.27034512e+04,3.18171992e+04,2.31506836e+04,3.60672583e+03
2.98544264e+00,2.50018398e+04,3.50344727e+04,2.53401387e+04,3.70854419e+03
3.08786964e+00,2.56930195e+04,3.59963086e+04,2.56697012e+04,3.41309058e+03
3.19293284e+00,2.47731289e+04,3.46992695e+04,2.42604980e+04,2.91993726e+03
3.30070019e+00,2.28077656e+04,3.19382754e+04,2.18480977e+04,2.39451855e+03
3.41124129e+00,2.03575586e+04,2.85003828e+04,1.90982207e+04,1.96887488e+03
3.52462745e+00,1.78547637e+04,2.49916055e+04,1.64648848e+04,1.61871375e+03
3.64093208e+00,1.55801113e+04,2.18047891e+04,1.41941738e+04,1.40021631e+03
3.76023054e+00,1.36662461e+04,1.91249766e+04,1.23692012e+04,1.23043652e+03
3.88259912e+00,1.21431426e+04,1.69934805e+04,1.09785273e+04,1.14661938e+03
4.00811720e+00,1.10007510e+04,1.53957383e+04,9.98525781e+03,1.09371936e+03
4.13686609e+00,1.02240859e+04,1.43104404e+04,9.35748828e+03,1.09298608e+03
4.26892853e+00,9.80428223e+03,1.37249512e+04,9.07559277e+03,1.11492053e+03
4.40439081e+00,9.69071484e+03,1.35682891e+04,9.08761816e+03,1.18151770e+03
4.54333878e+00,9.84100879e+03,1.37811191e+04,9.35444141e+03,1.26416785e+03
4.68586397e+00,1.02648164e+04,1.43769316e+04,9.88456641e+03,1.40765076e+03
4.83205652e+00,1.09463848e+04,1.53336855e+04,1.06647686e+04,1.54113232e+03
4.98201227e+00,1.18906504e+04,1.66583203e+04,1.17021426e+04,1.74716028e+03
5.13582754e+00,1.30942773e+04,1.83460566e+04,1.29898271e+04,1.94647607e+03
5.29360199e+00,1.45315879e+04,2.03608535e+04,1.45022236e+04,2.20436768e+03
5.45543718e+00,1.62433535e+04,2.27597969e+04,1.62824775e+04,2.46941699e+03
5.62143755e+00,1.80647793e+04,2.53116504e+04,1.81525449e+04,2.74477466e+03
5.79171038e+00,1.98454805e+04,2.78057891e+04,1.99539141e+04,2.95289502e+03
5.96636629e+00,2.15877988e+04,3.02445820e+04,2.16236191e+04,3.07592163e+03
6.14551687e+00,2.24300293e+04,3.14206426e+04,2.22833965e+04,2.98243994e+03
6.32927942e+00,2.27098203e+04,3.18080234e+04,2.22909648e+04,2.77390186e+03
6.51777077e+00,2.24722305e+04,3.14690469e+04,2.16862754e+04,2.48511450e+03
6.71111441e+00,2.14656035e+04,3.00540371e+04,2.03896230e+04,2.20566968e+03
6.90943432e+00,2.04599727e+04,2.86413242e+04,1.91292676e+04,1.96239050e+03
7.11285782e+00,1.86785000e+04,2.61435391e+04,1.72149551e+04,1.73312830e+03
7.32151794e+00,1.59750566e+04,2.23572266e+04,1.45845830e+04,1.47465662e+03
7.53554821e+00,1.08890674e+04,1.52418359e+04,1.00704736e+04,1.13500330e+03
7.75508738e+00,1.04806562e+04,1.46761924e+04,9.97423828e+03,1.25943860e+03
7.98027754e+00,1.40659863e+04,1.96976758e+04,1.34432451e+04,1.68940552e+03
8.21126270e+00,1.44798770e+04,2.02752773e+04,1.38388271e+04,1.71742236e+03
8.44819450e+00,1.22674619e+04,1.71785762e+04,1.19081006e+04,1.57393188e+03
8.69122219e+00,1.41280947e+04,1.97899121e+04,1.40135117e+04,1.95201611e+03
8.94050789e+00,1.87436758e+04,2.62593516e+04,1.87511562e+04,2.59530542e+03
9.19620800e+00,1.70285723e+04,2.38572988e+04,1.71460977e+04,2.25974292e+03
9.45849037e+00,1.19407764e+04,1.67307461e+04,1.22562021e+04,1.55506714e+03
9.72752285e+00,1.12857266e+04,1.58139922e+04,1.17562686e+04,1.45083228e+03
1.00034800e+01,1.44420566e+04,2.02321133e+04,1.48214502e+04,1.70392542e+03
1.02865391e+01,1.65441367e+04,2.31681719e+04,1.66697344e+04,1.75680920e+03
1.05768833e+01,1.38645840e+04,1.94124453e+04,1.41698516e+04,1.43070972e+03
1.08747025e+01,1.00532480e+04,1.40796299e+04,1.09313584e+04,1.12096924e+03
1.11801853e+01,1.03677520e+04,1.45195059e+04,1.15038701e+04,1.13784595e+03
1.14935322e+01,1.15370752e+04,1.61563096e+04,1.29129590e+04,1.23870264e+03
1.18149433e+01,1.16027842e+04,1.62567998e+04,1.35812988e+04,1.34438293e+03
1.21446266e+01,1.15412578e+04,1.61810098e+04,1.40729531e+04,1.38221265e+03
1.24827967e+01,1.08325947e+04,1.51991797e+04,1.37422773e+04,1.29454578e+03
1.28296700e+01,9.83840625e+03,1.38233184e+04,1.30171328e+04,1.20622131e+03
1.31854706e+01,1.06877314e+04,1.50352930e+04,1.37495352e+04,1.27941650e+03
1.35504293e+01,1.13897959e+04,1.60389600e+04,1.38616270e+04,1.23426270e+03
1.39247818e+01,9.93204980e+03,1.40162246e+04,1.17717959e+04,9.37414124e+02
1.43087692e+01,9.54554688e+03,1.35052871e+04,1.05575508e+04,7.68301758e+02
1.47026405e+01,1.07721289e+04,1.52440508e+04,1.05500020e+04,7.71786682e+02
1.51066484e+01,1.14971670e+04,1.62404570e+04,1.00802295e+04,7.81774536e+02
1.55210552e+01,1.21867803e+04,1.71560918e+04,9.64556836e+03,7.96499207e+02
1.59461288e+01,1.25837051e+04,1.76701758e+04,9.05159277e+03,7.60140320e+02
1.63821430e+01,1.28183584e+04,1.79432500e+04,8.43678809e+03,6.76249512e+02
1.68293781e+01,1.35877480e+04,1.89614668e+04,8.27738379e+03,5.86724487e+02
1.72881241e+01,1.40399463e+04,1.95267090e+04,8.00952930e+03,5.26192505e+02
1.77586803e+01,1.34782246e+04,1.86989141e+04,7.49203564e+03,5.36563782e+02
1.82413464e+01,1.32114717e+04,1.83172812e+04,7.74528516e+03,5.96632263e+02
1.87364349e+01,1.25159805e+04,1.73373887e+04,7.68945117e+03,5.79181396e+02
1.92442665e+01,1.02386123e+04,1.41573252e+04,6.23381982e+03,4.25321014e+02
1.97651691e+01,7.80577832e+03,1.07878975e+04,4.72603174e+03,3.13503082e+02
2.02994785e+01,6.81996924e+03,9.44254883e+03,4.40920166e+03,3.23634186e+02
2.08475418e+01,6.26178857e+03,8.68687012e+03,4.45737354e+03,3.37622406e+02
2.14097099e+01,5.43665039e+03,7.55431494e+03,3.95129468e+03,2.39306442e+02
2.19863453e+01,4.34526904e+03,6.03627979e+03,2.89136621e+03,1.07502037e+02
2.25778236e+01,3.18042773e+03,4.41680713e+03,1.91159534e+03,4.03730812e+01
2.31845264e+01,2.07946582e+03,2.88156201e+03,9.77854797e+02,6.36179066e+00
2.38068466e+01,8.22285950e+02,1.12900427e+03,1.77763382e+02,4.41810191e-01
2.44451809e+01,3.23379486e+02,4.38788208e+02,2.71415863e+01,1.14307329e-02
2.50999470e+01,1.89377945e+02,2.55662247e+02,7.92843628e+00,5.57187060e-03
2.57715645e+01,1.08672112e+02,1.45771255e+02,2.98380136e+00,2.47757212e-04
2.64604683e+01,5.55325928e+01,7.38353271e+01,1.90134645e+00,2.13985895e-05
2.71671047e+01,3.36037331e+01,4.46792183e+01,1.11373174e+00,1.28979154e-05
2.78919277e+01,2.13255100e+01,2.82578754e+01,5.79382658e-01,1.55615926e-05
2.86354065e+01,1.16174688e+01,1.54279861e+01,2.88794577e-01,1.09396715e-05
2.93980217e+01,5.91971684e+00,7.85152960e+00,5.47168478e-02,5.72853560e-06
3.01802654e+01,2.13976121e+00,2.80590129e+00,1.02292476e-02,2.45036540e-06
3.09826431e+01,7.05497861e-01,9.17235076e-01,1.87213311e-03,6.87641148e-07
3.18056717e+01,3.64913493e-01,4.74541605e-01,1.11189415e-03,2.38154414e-07
3.26498833e+01,1.66052103e-01,2.15104178e-01,3.85891908e-04,7.71266926e-08
3.35158234e+01,2.93184705e-02,3.74959446e-02,5.91673488e-05,1.39526453e-08
3.44040565e+01,2.87393318e-03,3.62954522e-03,2.29107482e-05,1.59084079e-09
3.53151436e+01,1.39111909e-03,1.78832293e-03,3.63267787e-07,3.11786486e-10
3.62496834e+01,5.11948456e-05,6.18518825e-05,5.43357643e-08,4.54619745e-11
3.72082787e+01,4.16070225e-06,4.97718565e-06,7.30627203e-09,3.25773696e-12
3.81915474e+01,2.67748874e-07,3.19810141e-07,9.00168273e-10,1.72186579e-13
3.92001228e+01,8.95815333e-09,1.06303215e-08,5.96124747e-11,1.28115995e-14
4.02346535e+01,1.26440646e-11,1.58256099e-11,2.04127036e-12,2.15235135e-16
4.12958107e+01,2.77688679e-13,3.35852060e-13,1.75264059e-13,3.37566684e-17
4.23842850e+01,7.20831391e-15,8.84065821e-15,1.41569646e-16,4.79754664e-18
4.35007744e+01,2.12850380e-16,2.65571034e-16,3.93315929e-19,3.26269528e-19
4.46459999e+01,2.13286122e-17,2.59666437e-17,4.10616754e-20,2.03569654e-21
4.58207016e+01,7.15154818e-19,8.67828888e-19,9.29674672e-22,4.58288467e-24
4.70256386e+01,2.38239755e-22,2.90504478e-22,2.25026281e-23,3.98265179e-26
4.82615852e+01,3.84732315e-24,4.64090460e-24,4.12037088e-26,3.92015637e-29
4.95293465e+01,8.33318764e-27,1.05431121e-26,5.79577956e-27,6.11273726e-30
5.08297386e+01,2.00331814e-28,2.48142808e-28,2.33036636e-29,2.38568525e-33
5.21635971e+01,4.78234398e-30,5.69878119e-30,6.58394151e-31,6.42658420e-34
5.35317917e+01,2.03272508e-32,2.58132564e-32,3.87317638e-33,2.17279735e-37
5.49351997e+01,7.45001963e-34,8.94973277e-34,4.26297991e-35,3.30103879e-38
5.63747253e+01,5.73164308e-36,7.06166178e-36,2.55355817e-37,2.66246708e-41
5.78513031e+01,1.25026652e-37,1.45388920e-37,2.67227617e-39,0.00000000e+00
5.93278885e+01,1.55404000e-39,1.94920616e-39,4.20389539e-42,0.00000000e+00
6.08044662e+01,1.33123354e-40,1.49938936e-40,0.00000000e+00,0.00000000e+00
6.22810478e+01,0.00000000e+00,0.00000000e+00,0.00000000e+00,0.00000000e+00
6.37576256e+01,0.00000000e+00,0.00000000e+00,0.00000000e+00,0.00000000e+00
6.52341995e+01,0.00000000e+00,0.00000000e+00,0.00000000e+00,0.00000000e+00
6.67107849e+01,0.00000000e+00,0.00000000e+00,0.00000000e+00,0.00000000e+00
6.81873703e+01,0.00000000e+00,0.00000000e+00,0.00000000e+00,0.00000000e+00
6.96639481e+01,0.00000000e+00,0.00000000e+00,0.00000000e+00,0.00000000e+00
7.11405258e+01,0.00000000e+00,0.00000000e+00,0.00000000e+00,0.00000000e+00
7.26171036e+01,0.00000000e+00,0.00000000e+00,0.00000000e+00,0.00000000e+00
7.40936813e+01,0.00000000e+00,0.00000000e+00,0.00000000e+00,0.00000000e+00
7.55702591e+01,0.00000000e+00,0.00000000e+00,0.00000000e+00,0.00000000e+00
7.70468445e+01,0.00000000e+00,0.00000000e+00,0.00000000e+00,0.00000000e+00
7.85234222e+01,0.00000000e+00,0.00000000e+00,0.00000000e+00,0.00000000e+00
8.00000000e+01,0.00000000e+00,0.00000000e+00,0.00000000e+00,0.00000000e+00
