Height (km), 7_8 um ash conc (g/kg), 15_6 um ash conc (g/kg), 125 um ash conc (g/kg), 1 mm ash conc (g/kg)
0.00000000e+00,0.00000000e+00,0.00000000e+00,0.00000000e+00,0.00000000e+00
3.99999991e-02,2.77538147e-30,4.17292783e-30,2.46742764e-26,2.28273773e+00
7.99999982e-02,1.10074667e-27,1.81313362e-27,1.39105823e-23,2.55686355e+00
1.19999997e-01,1.50028365e-25,2.48612127e-25,1.54120631e-21,2.63790751e+00
1.59999996e-01,3.48197327e-24,5.83055299e-24,5.57037642e-20,2.95999312e+00
2.00000003e-01,4.72205070e-22,7.79948771e-22,4.53184299e-18,2.97651148e+00
2.39999995e-01,8.43341411e-21,1.40205078e-20,7.35858946e-17,3.32115531e+00
2.80000001e-01,1.22525973e-19,2.01660236e-19,9.19523509e-16,3.80161762e+00
3.19999993e-01,1.19655884e-18,1.97606355e-18,8.09571221e-15,3.83652020e+00
3.60000014e-01,1.05762842e-17,1.73417787e-17,6.48858679e-14,4.46669054e+00
4.00000006e-01,8.79240449e-17,1.44079285e-16,4.43703098e-13,4.67376804e+00
4.39999998e-01,5.44471084e-16,8.92432643e-16,2.56385690e-12,5.71563530e+00
4.79999989e-01,3.22169638e-15,5.26307479e-15,1.37284836e-11,5.63844156e+00
5.19999981e-01,1.95036485e-14,3.18503802e-14,6.75990375e-11,6.87669325e+00
5.60000002e-01,1.27981799e-13,2.07496211e-13,3.22250227e-10,6.71884346e+00
6.00000024e-01,5.74357890e-13,9.40254818e-13,1.46298440e-09,8.20309162e+00
6.41029537e-01,4.66886382e-12,7.52624005e-12,5.95155036e-09,7.70254278e+00
6.83115125e-01,1.62380717e-11,2.66526697e-11,2.30733388e-08,1.00817966e+01
7.26283848e-01,7.67902061e-11,1.23891175e-10,7.50140714e-08,9.07827568e+00
7.70563781e-01,2.88162078e-10,4.68553751e-10,1.31435468e-06,1.16691818e+01
8.15983355e-01,1.58245417e-09,2.54337418e-09,1.23657719e-05,1.02797451e+01
8.62571895e-01,4.07048928e-09,6.67306832e-09,1.51733664e-04,1.36995230e+01
9.10359621e-01,1.68481620e-08,2.70051039e-08,1.02770224e-03,1.12078552e+01
9.59377348e-01,4.28009415e-08,6.98234004e-08,2.15674005e-03,1.49062071e+01
1.00965667e+00,1.36646506e-07,2.20619086e-07,7.61185680e-03,1.28190422e+01
1.06123006e+00,4.18318450e-07,6.80536459e-07,1.61242951e-02,1.72357845e+01
1.11413085e+00,1.29633827e-06,2.17694515e-06,2.27365848e-02,1.46862736e+01
1.16839325e+00,3.59649130e-06,6.42162422e-06,3.68584655e-02,1.96939030e+01
1.22405231e+00,6.03534818e-06,1.05425852e-05,3.11857890e-02,1.67933311e+01
1.28114390e+00,7.93333584e-06,1.29629771e-05,4.49422225e-02,2.17380257e+01
1.33970511e+00,9.80958066e-06,1.56930419e-05,2.89283395e-02,1.90708733e+01
1.39977336e+00,1.48035527e+04,2.07089707e+04,1.45130137e+04,1.51114746e+03
1.46138775e+00,1.18463770e+04,1.65675977e+04,1.13592881e+04,1.10068066e+03
1.52458799e+00,7.17575195e+03,1.00356289e+04,6.89679785e+03,7.01909241e+02
1.58941495e+00,6.16320703e+03,8.62056250e+03,5.97422119e+03,6.56801086e+02
1.65591037e+00,5.76624170e+03,8.06599463e+03,5.62293018e+03,6.57540955e+02
1.72411728e+00,5.58733447e+03,7.81623242e+03,5.47365625e+03,6.61529602e+02
1.79407966e+00,5.49335742e+03,7.68513623e+03,5.40077734e+03,6.78807739e+02
1.86584306e+00,5.44301953e+03,7.61500586e+03,5.36661572e+03,6.85772888e+02
1.93945324e+00,5.41803711e+03,7.58029785e+03,5.35466406e+03,7.03404907e+02
2.01495814e+00,5.40249219e+03,7.55873828e+03,5.34969580e+03,7.10600769e+02
2.09240627e+00,5.39504590e+03,7.54848438e+03,5.35121533e+03,7.26366577e+02
2.17184782e+00,5.39453711e+03,7.54792236e+03,5.35868848e+03,7.34558472e+02
2.25333428e+00,5.40081641e+03,7.55683203e+03,5.37186328e+03,7.48537048e+02
2.33691788e+00,5.40690674e+03,7.56546143e+03,5.38386914e+03,7.56203979e+02
2.42265272e+00,5.41383105e+03,7.57525879e+03,5.39626416e+03,7.69025879e+02
2.51059437e+00,5.42407617e+03,7.58967773e+03,5.41137695e+03,7.78755920e+02
2.60079956e+00,5.43553369e+03,7.60578516e+03,5.42719531e+03,7.90671936e+02
2.69332647e+00,5.45102441e+03,7.62753223e+03,5.44670605e+03,8.01014771e+02
2.78823495e+00,5.47044824e+03,7.65477344e+03,5.46979883e+03,8.13549011e+02
2.88558602e+00,5.49358154e+03,7.68719531e+03,5.49614307e+03,8.25506775e+02
2.98544264e+00,5.52050439e+03,7.72491943e+03,5.52615088e+03,8.32996582e+02
3.08786964e+00,5.54547168e+03,7.75989697e+03,5.55370312e+03,8.45337891e+02
3.19293284e+00,5.56881152e+03,7.79259180e+03,5.57939453e+03,8.55566895e+02
3.30070019e+00,5.59025977e+03,7.82263574e+03,5.60296094e+03,8.61543274e+02
3.41124129e+00,5.61456543e+03,7.85667920e+03,5.62938477e+03,8.75428772e+02
3.52462745e+00,5.64091602e+03,7.89357910e+03,5.65756738e+03,8.81568604e+02
3.64093208e+00,5.67156934e+03,7.93649561e+03,5.68995801e+03,8.92977417e+02
3.76023054e+00,5.69987012e+03,7.97611426e+03,5.71963330e+03,8.96959473e+02
3.88259912e+00,5.72465771e+03,8.01081885e+03,5.74582422e+03,9.09724060e+02
4.00811720e+00,5.75185449e+03,8.04889648e+03,5.77449121e+03,9.10530273e+02
4.13686609e+00,5.77582324e+03,8.08245117e+03,5.79957275e+03,9.18205994e+02
4.26892853e+00,5.80717285e+03,8.12633594e+03,5.83212988e+03,9.24305481e+02
4.40439081e+00,5.84288770e+03,8.17632227e+03,5.86883008e+03,9.28564209e+02
4.54333878e+00,5.88041309e+03,8.22883789e+03,5.90716895e+03,9.33761597e+02
4.68586397e+00,5.92292139e+03,8.28832031e+03,5.95027734e+03,9.40391968e+02
4.83205652e+00,5.96102002e+03,8.34162109e+03,5.98869189e+03,9.41685730e+02
4.98201227e+00,6.00742822e+03,8.40655176e+03,6.03544775e+03,9.51548767e+02
5.13582754e+00,6.02858105e+03,8.43613574e+03,6.05652637e+03,9.49909546e+02
5.29360199e+00,6.04069629e+03,8.45308203e+03,6.06894580e+03,9.54094543e+02
5.45543718e+00,6.04014160e+03,8.45228516e+03,6.06815918e+03,9.49448669e+02
5.62143755e+00,6.02302637e+03,8.42834668e+03,6.05208594e+03,9.50848877e+02
5.79171038e+00,6.08100684e+03,8.50949023e+03,6.11146777e+03,9.54481506e+02
5.96636629e+00,6.09426855e+03,8.52797559e+03,6.12377148e+03,9.55996277e+02
6.14551687e+00,6.19457764e+03,8.66839453e+03,6.22851807e+03,9.69766541e+02
6.32927942e+00,6.46979590e+03,9.05334180e+03,6.50032422e+03,1.00197125e+03
6.51777077e+00,6.54520117e+03,9.15870410e+03,6.57299268e+03,1.00832648e+03
6.71111441e+00,6.96138379e+03,9.74125293e+03,6.99827051e+03,1.07321021e+03
6.90943432e+00,7.38878174e+03,1.03393623e+04,7.42712695e+03,1.12714099e+03
7.11285782e+00,5.91946045e+03,8.28291406e+03,5.93575977e+03,9.00137329e+02
7.32151794e+00,4.80234863e+03,6.72112598e+03,4.86628760e+03,7.88587952e+02
7.53554821e+00,6.55599316e+03,9.17541992e+03,6.64243115e+03,1.04553467e+03
7.75508738e+00,7.77416748e+03,1.08783193e+04,7.80705078e+03,1.16204602e+03
7.98027754e+00,7.30708252e+03,1.02247461e+04,7.34770264e+03,1.11819739e+03
8.21126270e+00,8.06865918e+03,1.12908926e+04,8.13495312e+03,1.24788232e+03
8.44819450e+00,7.08949316e+03,9.92082129e+03,7.16146338e+03,1.09820569e+03
8.69122219e+00,5.33235547e+03,7.46268164e+03,5.43178076e+03,8.44559448e+02
8.94050789e+00,5.18545166e+03,7.25833789e+03,5.33935156e+03,8.38811035e+02
9.19620800e+00,6.58635059e+03,9.21933301e+03,6.77491553e+03,1.02855066e+03
9.45849037e+00,7.87776709e+03,1.10258906e+04,8.05192822e+03,1.16923987e+03
9.72752285e+00,8.33677051e+03,1.16677100e+04,8.50202441e+03,1.21012402e+03
1.00034800e+01,7.47325146e+03,1.04590938e+04,7.63373389e+03,1.06683972e+03
1.02865391e+01,4.85241504e+03,6.79294482e+03,5.05253076e+03,7.07063232e+02
1.05768833e+01,3.27949243e+03,4.59354443e+03,3.52220215e+03,4.96751953e+02
1.08747025e+01,3.18796997e+03,4.46666846e+03,3.43879468e+03,4.78845734e+02
1.11801853e+01,3.34396021e+03,4.68581006e+03,3.58226196e+03,4.96939697e+02
1.14935322e+01,3.31220679e+03,4.64145410e+03,3.54503198e+03,4.91048737e+02
1.18149433e+01,2.97852905e+03,4.17346582e+03,3.24830420e+03,4.41537079e+02
1.21446266e+01,2.41638208e+03,3.38601953e+03,2.80957446e+03,3.65494293e+02
1.24827967e+01,2.19017212e+03,3.07084155e+03,2.80735889e+03,3.26814941e+02
1.28296700e+01,2.51256616e+03,3.52542969e+03,3.40668213e+03,3.31713867e+02
1.31854706e+01,3.21081006e+03,4.50878760e+03,4.34400977e+03,3.62139801e+02
1.35504293e+01,4.00055737e+03,5.62089893e+03,5.17879834e+03,3.98934875e+02
1.39247818e+01,4.58344971e+03,6.44362793e+03,5.64849268e+03,4.04128662e+02
1.43087692e+01,4.56656543e+03,6.42241650e+03,5.27547754e+03,3.17517609e+02
1.47026405e+01,4.22863086e+03,5.94601123e+03,4.37428467e+03,2.08547440e+02
1.51066484e+01,4.41388379e+03,6.19457129e+03,3.83488330e+03,1.60378357e+02
1.55210552e+01,4.91133105e+03,6.87051465e+03,3.45483081e+03,1.63101105e+02
1.59461288e+01,5.37336816e+03,7.48683301e+03,3.26150439e+03,1.98698700e+02
1.63821430e+01,5.17000684e+03,7.18418359e+03,3.03014844e+03,2.25711365e+02
1.68293781e+01,4.52308936e+03,6.27253223e+03,2.63145581e+03,2.27837723e+02
1.72881241e+01,3.88869849e+03,5.38630762e+03,2.39499854e+03,2.23495041e+02
1.77586803e+01,3.42267505e+03,4.74389795e+03,2.38583325e+03,2.13464951e+02
1.82413464e+01,2.63625269e+03,3.65680713e+03,1.95592505e+03,1.60235260e+02
1.87364349e+01,1.72301746e+03,2.39099683e+03,1.29364258e+03,9.72892456e+01
1.92442665e+01,1.13007385e+03,1.56940540e+03,8.34002686e+02,3.61223755e+01
1.97651691e+01,5.32618469e+02,7.38353882e+02,3.48604828e+02,1.03095331e+01
2.02994785e+01,2.68618286e+02,3.72148773e+02,1.69044632e+02,4.54538202e+00
2.08475418e+01,1.29389862e+02,1.78628815e+02,5.89659729e+01,3.27546895e-01
2.14097099e+01,5.32733231e+01,7.30067520e+01,1.14434519e+01,4.90241265e-03
2.19863453e+01,3.96520424e+01,5.42730980e+01,7.38592339e+00,3.07044364e-03
2.25778236e+01,2.65382347e+01,3.62285042e+01,4.35185671e+00,1.28392567e-04
2.31845264e+01,1.53140087e+01,2.08241425e+01,2.20490813e+00,3.85158673e-05
2.38068466e+01,6.66016197e+00,9.03367043e+00,9.27157402e-01,9.38119229e-06
2.44451809e+01,2.91898298e+00,3.96159673e+00,3.96081746e-01,4.35289030e-06
2.50999470e+01,1.22762167e+00,1.66610873e+00,1.45015344e-01,2.04350204e-06
2.57715645e+01,2.94340760e-01,3.96959692e-01,2.09338851e-02,4.91931587e-07
2.64604683e+01,4.54823971e-02,6.06931038e-02,8.76293518e-04,7.89172887e-08
2.71671047e+01,8.36617593e-03,1.10823736e-02,1.00814439e-04,1.47106283e-08
2.78919277e+01,1.73853687e-03,2.28442717e-03,1.05178860e-05,4.48406068e-09
2.86354065e+01,1.77203430e-04,2.27201555e-04,1.36237293e-06,1.18109611e-09
2.93980217e+01,1.41176079e-05,1.82489312e-05,2.92645581e-07,1.44796772e-10
3.01802654e+01,6.42689702e-06,8.45828799e-06,7.88990491e-08,7.38600067e-12
3.09826431e+01,2.22029962e-06,2.90869548e-06,2.05740829e-08,6.03931076e-13
3.18056717e+01,3.50705136e-08,4.32471126e-08,8.95550134e-10,4.76388101e-14
3.26498833e+01,3.59302865e-10,4.66926997e-10,1.21109633e-11,4.96568788e-15
3.35158234e+01,1.39332773e-11,1.78675286e-11,1.13754644e-12,3.31489970e-16
3.44040565e+01,3.50964456e-13,4.53794446e-13,5.06406406e-14,2.16185523e-17
3.53151436e+01,7.99048023e-15,1.03430126e-14,2.08868563e-15,1.50019099e-18
3.62496834e+01,3.79878739e-16,4.96835804e-16,1.87192280e-17,3.11806766e-20
3.72082787e+01,3.28495656e-17,4.31388818e-17,1.74411614e-19,5.54372127e-23
3.81915474e+01,1.35100339e-18,1.78269437e-18,1.83269458e-20,2.83145391e-24
3.92001228e+01,5.01855688e-21,6.62739894e-21,5.59982645e-22,5.84313710e-26
4.02346535e+01,1.11724313e-22,1.48335284e-22,3.32359185e-23,3.66451120e-27
4.12958107e+01,2.83940583e-24,3.89885036e-24,7.48889570e-25,7.67838658e-29
4.23842850e+01,4.12931128e-27,4.39853318e-27,6.85618963e-29,2.44048355e-31
4.35007744e+01,5.97533367e-29,9.41641557e-29,1.22775514e-29,7.41226110e-33
4.46459999e+01,2.23731783e-30,3.29754829e-30,2.09603174e-31,9.22766940e-36
4.58207016e+01,1.48516673e-32,2.16329061e-32,7.34776172e-33,3.06297208e-37
4.70256386e+01,2.58683190e-34,3.93226600e-34,1.34432688e-35,8.88423226e-40
4.82615852e+01,3.15675406e-36,3.42288006e-36,1.09840780e-37,1.68155816e-41
4.95293465e+01,2.55470723e-38,3.68163146e-38,2.02767888e-39,0.00000000e+00
5.08297386e+01,4.91855761e-40,5.28289521e-40,0.00000000e+00,0.00000000e+00
5.21635971e+01,0.00000000e+00,0.00000000e+00,0.00000000e+00,0.00000000e+00
5.35317917e+01,0.00000000e+00,0.00000000e+00,0.00000000e+00,0.00000000e+00
5.49351997e+01,0.00000000e+00,0.00000000e+00,0.00000000e+00,0.00000000e+00
5.63747253e+01,0.00000000e+00,0.00000000e+00,0.00000000e+00,0.00000000e+00
5.78513031e+01,0.00000000e+00,0.00000000e+00,0.00000000e+00,0.00000000e+00
5.93278885e+01,0.00000000e+00,0.00000000e+00,0.00000000e+00,0.00000000e+00
6.08044662e+01,0.00000000e+00,0.00000000e+00,0.00000000e+00,0.00000000e+00
6.22810478e+01,0.00000000e+00,0.00000000e+00,0.00000000e+00,0.00000000e+00
6.37576256e+01,0.00000000e+00,0.00000000e+00,0.00000000e+00,0.00000000e+00
6.52341995e+01,0.00000000e+00,0.00000000e+00,0.00000000e+00,0.00000000e+00
6.67107849e+01,0.00000000e+00,0.00000000e+00,0.00000000e+00,0.00000000e+00
6.81873703e+01,0.00000000e+00,0.00000000e+00,0.00000000e+00,0.00000000e+00
6.96639481e+01,0.00000000e+00,0.00000000e+00,0.00000000e+00,0.00000000e+00
7.11405258e+01,0.00000000e+00,0.00000000e+00,0.00000000e+00,0.00000000e+00
7.26171036e+01,0.00000000e+00,0.00000000e+00,0.00000000e+00,0.00000000e+00
7.40936813e+01,0.00000000e+00,0.00000000e+00,0.00000000e+00,0.00000000e+00
7.55702591e+01,0.00000000e+00,0.00000000e+00,0.00000000e+00,0.00000000e+00
7.70468445e+01,0.00000000e+00,0.00000000e+00,0.00000000e+00,0.00000000e+00
7.85234222e+01,0.00000000e+00,0.00000000e+00,0.00000000e+00,0.00000000e+00
8.00000000e+01,0.00000000e+00,0.00000000e+00,0.00000000e+00,0.00000000e+00
