Height (km), 7_8 um ash conc (g/kg), 15_6 um ash conc (g/kg), 125 um ash conc (g/kg), 1 mm ash conc (g/kg)
0.00000000e+00,0.00000000e+00,0.00000000e+00,0.00000000e+00,0.00000000e+00
3.99999991e-02,1.24150411e-05,3.40182669e-05,1.16239153e-01,3.23559380e+01
7.99999982e-02,2.26997417e-05,6.05587520e-05,1.50414050e-01,3.37444725e+01
1.19999997e-01,3.87791188e-05,9.81745543e-05,1.61315665e-01,3.43992844e+01
1.59999996e-01,6.41847291e-05,1.55079411e-04,1.71101063e-01,3.57674522e+01
2.00000003e-01,1.28571002e-04,2.79346015e-04,1.75409079e-01,3.66712189e+01
2.39999995e-01,2.36859574e-04,4.85381403e-04,1.82184935e-01,3.80534554e+01
2.80000001e-01,3.75755510e-04,7.36111833e-04,1.84984073e-01,3.92022285e+01
3.19999993e-01,5.90830692e-04,1.10610004e-03,1.87237963e-01,4.05889626e+01
3.60000014e-01,8.85012676e-04,1.60498032e-03,1.86137825e-01,4.18215446e+01
4.00000006e-01,1.29992387e-03,2.27666786e-03,1.83751136e-01,4.41582184e+01
4.39999998e-01,1.73114636e-03,2.96704099e-03,1.77610442e-01,4.54109268e+01
4.79999989e-01,2.29707337e-03,3.85952694e-03,1.70709863e-01,4.65933609e+01
5.19999981e-01,3.09188804e-03,5.10642445e-03,1.60376146e-01,4.86163940e+01
5.60000002e-01,4.14479850e-03,6.72693504e-03,1.50008798e-01,4.94282646e+01
6.00000024e-01,5.74708870e-03,9.19239782e-03,1.38201952e-01,5.07962646e+01
6.41029537e-01,7.54348608e-03,1.19860442e-02,1.27996922e-01,5.11463814e+01
6.83115125e-01,1.00392187e-02,1.59093514e-02,1.17116973e-01,5.19280243e+01
7.26283848e-01,1.38199553e-02,2.19012108e-02,1.08365044e-01,5.26668053e+01
7.70563781e-01,1.84005909e-02,2.92073283e-02,1.00880913e-01,5.41181984e+01
8.15983355e-01,2.54508369e-02,4.04493660e-02,9.55900550e-02,5.59259262e+01
8.62571895e-01,3.53735462e-02,5.61139248e-02,9.13755521e-02,5.69055290e+01
9.10359621e-01,5.08709289e-02,7.97253475e-02,8.95884410e-02,5.90328484e+01
9.59377348e-01,7.06273839e-02,1.07988469e-01,8.90154615e-02,6.03286819e+01
1.00965667e+00,9.43321586e-02,1.40647784e-01,8.98251086e-02,6.43944016e+01
1.06123006e+00,1.20957240e-01,1.76598623e-01,9.18996185e-02,6.41650848e+01
1.11413085e+00,1.45303607e-01,2.09176496e-01,9.42094550e-02,6.78548508e+01
1.16839325e+00,1.67646900e-01,2.38127947e-01,9.74816531e-02,7.18387146e+01
1.22405231e+00,1.84499130e-01,2.57141411e-01,1.01696402e-01,7.44319382e+01
1.28114390e+00,1.93693042e-01,2.63661444e-01,1.10114589e-01,8.00700150e+01
1.33970511e+00,1.90524876e-01,2.53518820e-01,1.25572920e-01,8.41719437e+01
1.39977336e+00,2.06875352e+04,2.89635586e+04,1.94152305e+04,1.26705786e+03
1.46138775e+00,2.57208145e+04,3.59659453e+04,2.15977148e+04,1.35277417e+03
1.52458799e+00,1.51108809e+04,2.11253008e+04,1.28160176e+04,9.64565125e+02
1.58941495e+00,1.37028564e+04,1.91703223e+04,1.22508652e+04,1.19712292e+03
1.65591037e+00,1.40057852e+04,1.96043438e+04,1.30064473e+04,1.46713684e+03
1.72411728e+00,1.56865820e+04,2.19662773e+04,1.50216445e+04,1.84559729e+03
1.79407966e+00,1.81237832e+04,2.53850645e+04,1.76439785e+04,2.16961133e+03
1.86584306e+00,1.99770723e+04,2.79796250e+04,1.93626797e+04,2.22215723e+03
1.93945324e+00,2.00055039e+04,2.80130781e+04,1.90409961e+04,2.00369165e+03
2.01495814e+00,1.83779492e+04,2.57278633e+04,1.71525195e+04,1.67788940e+03
2.09240627e+00,1.61592012e+04,2.26171172e+04,1.48185801e+04,1.40248425e+03
2.17184782e+00,1.40074883e+04,1.96023750e+04,1.26670410e+04,1.18219250e+03
2.25333428e+00,1.21867900e+04,1.70533125e+04,1.09525918e+04,1.07000269e+03
2.33691788e+00,1.09149727e+04,1.52746270e+04,9.85116406e+03,1.02116602e+03
2.42265272e+00,1.03364746e+04,1.44677998e+04,9.45112012e+03,1.08279736e+03
2.51059437e+00,1.04408701e+04,1.46173496e+04,9.70285938e+03,1.18496594e+03
2.60079956e+00,1.09784863e+04,1.53732051e+04,1.03620195e+04,1.35979956e+03
2.69332647e+00,1.17761914e+04,1.64935078e+04,1.12933896e+04,1.55900623e+03
2.78823495e+00,1.31471973e+04,1.84168887e+04,1.28000215e+04,1.87475842e+03
2.88558602e+00,1.48185850e+04,2.07606172e+04,1.46016631e+04,2.19850342e+03
2.98544264e+00,1.64158984e+04,2.30004336e+04,1.63435615e+04,2.55738599e+03
3.08786964e+00,1.79986680e+04,2.52197773e+04,1.80736309e+04,2.84798096e+03
3.19293284e+00,1.93524219e+04,2.71170938e+04,1.95106211e+04,3.06401636e+03
3.30070019e+00,2.03305703e+04,2.84866426e+04,2.04783340e+04,3.09371167e+03
3.41124129e+00,2.09187324e+04,2.93085742e+04,2.09656875e+04,3.02907715e+03
3.52462745e+00,2.08969180e+04,2.92749414e+04,2.07660430e+04,2.82815332e+03
3.64093208e+00,2.04120293e+04,2.85922578e+04,2.00751992e+04,2.58421289e+03
3.76023054e+00,1.98861367e+04,2.78527109e+04,1.93638574e+04,2.37820166e+03
3.88259912e+00,1.94712852e+04,2.72688359e+04,1.87660586e+04,2.21364087e+03
4.00811720e+00,1.88567266e+04,2.64053750e+04,1.79905293e+04,2.04888379e+03
4.13686609e+00,1.79193594e+04,2.50905918e+04,1.69537656e+04,1.89798083e+03
4.26892853e+00,1.69603828e+04,2.37463164e+04,1.59445195e+04,1.77769421e+03
4.40439081e+00,1.60659180e+04,2.24929219e+04,1.50308623e+04,1.68644336e+03
4.54333878e+00,1.51040713e+04,2.11457070e+04,1.40864883e+04,1.60055469e+03
4.68586397e+00,1.43310869e+04,2.00637383e+04,1.33676934e+04,1.55876489e+03
4.83205652e+00,1.41836953e+04,1.98578398e+04,1.32505449e+04,1.57428711e+03
4.98201227e+00,1.41710469e+04,1.98401133e+04,1.32467129e+04,1.60414380e+03
5.13582754e+00,1.39844033e+04,1.95792988e+04,1.31114434e+04,1.62086511e+03
5.29360199e+00,1.40047881e+04,1.96082441e+04,1.31694238e+04,1.67101538e+03
5.45543718e+00,1.37410889e+04,1.92395371e+04,1.29653799e+04,1.67241833e+03
5.62143755e+00,1.33698672e+04,1.87208789e+04,1.26837656e+04,1.68240466e+03
5.79171038e+00,1.28270273e+04,1.79621895e+04,1.22536406e+04,1.67473242e+03
5.96636629e+00,1.24018848e+04,1.73700273e+04,1.20073301e+04,1.71339722e+03
6.14551687e+00,1.27310459e+04,1.78326602e+04,1.24161748e+04,1.78218604e+03
6.32927942e+00,1.31704297e+04,1.84492969e+04,1.29254775e+04,1.89389233e+03
6.51777077e+00,1.45478477e+04,2.03813789e+04,1.44166699e+04,2.12488208e+03
6.71111441e+00,1.78375391e+04,2.49907148e+04,1.77175684e+04,2.52996997e+03
6.90943432e+00,1.99178438e+04,2.79005117e+04,1.95945625e+04,2.65593335e+03
7.11285782e+00,1.94688574e+04,2.72705352e+04,1.91386523e+04,2.56137769e+03
7.32151794e+00,2.08969961e+04,2.92689707e+04,2.04410176e+04,2.60767163e+03
7.53554821e+00,2.14479785e+04,3.00356836e+04,2.07161406e+04,2.47965552e+03
7.75508738e+00,1.91457188e+04,2.68067695e+04,1.82455449e+04,2.08472192e+03
7.98027754e+00,1.54679336e+04,2.16540566e+04,1.45990430e+04,1.65573792e+03
8.21126270e+00,1.30846523e+04,1.83170039e+04,1.23316934e+04,1.44138770e+03
8.44819450e+00,1.21030244e+04,1.69447051e+04,1.14778594e+04,1.40286951e+03
8.69122219e+00,1.18260137e+04,1.65583379e+04,1.12779912e+04,1.43097595e+03
8.94050789e+00,1.17216602e+04,1.64157305e+04,1.13440527e+04,1.52023401e+03
9.19620800e+00,1.30827246e+04,1.83257148e+04,1.28278857e+04,1.76114099e+03
9.45849037e+00,1.49097822e+04,2.08850098e+04,1.46378271e+04,1.99779871e+03
9.72752285e+00,1.47977539e+04,2.07298145e+04,1.46739688e+04,2.03628699e+03
1.00034800e+01,1.58291982e+04,2.21756484e+04,1.58173145e+04,2.15699756e+03
1.02865391e+01,1.63639854e+04,2.29247461e+04,1.64831367e+04,2.20311743e+03
1.05768833e+01,1.69436758e+04,2.37402910e+04,1.73553086e+04,2.31947119e+03
1.08747025e+01,1.93457070e+04,2.71030938e+04,1.98327480e+04,2.53160474e+03
1.11801853e+01,1.77247754e+04,2.48302949e+04,1.83836641e+04,2.22699292e+03
1.14935322e+01,1.24050117e+04,1.73805000e+04,1.34576221e+04,1.56826001e+03
1.18149433e+01,8.95967773e+03,1.25580918e+04,1.04012412e+04,1.20035596e+03
1.21446266e+01,8.31841992e+03,1.16617227e+04,9.99997852e+03,1.13508167e+03
1.24827967e+01,8.30083203e+03,1.16397500e+04,1.02386279e+04,1.15164905e+03
1.28296700e+01,8.38614648e+03,1.17652305e+04,1.06298018e+04,1.18213135e+03
1.31854706e+01,8.43053320e+03,1.18371309e+04,1.09989424e+04,1.18593970e+03
1.35504293e+01,8.75105273e+03,1.23006396e+04,1.16953994e+04,1.20393469e+03
1.39247818e+01,9.42751172e+03,1.32670186e+04,1.26635410e+04,1.25562561e+03
1.43087692e+01,1.09624746e+04,1.54312881e+04,1.41709102e+04,1.35411780e+03
1.47026405e+01,1.32331953e+04,1.86132227e+04,1.60823242e+04,1.47724255e+03
1.51066484e+01,1.48923164e+04,2.09350840e+04,1.72361680e+04,1.52014587e+03
1.55210552e+01,1.63726113e+04,2.30009707e+04,1.80864141e+04,1.54412036e+03
1.59461288e+01,1.79297930e+04,2.51859453e+04,1.91458145e+04,1.61034692e+03
1.63821430e+01,1.91344102e+04,2.68842402e+04,1.98016875e+04,1.68795703e+03
1.68293781e+01,2.07772344e+04,2.91649688e+04,2.05940039e+04,1.75266455e+03
1.72881241e+01,2.11392422e+04,2.96445625e+04,1.96133652e+04,1.53625793e+03
1.77586803e+01,1.75415156e+04,2.45875391e+04,1.47507676e+04,9.78353271e+02
1.82413464e+01,1.35480869e+04,1.89728477e+04,9.91667773e+03,5.61582947e+02
1.87364349e+01,1.26109453e+04,1.76310234e+04,8.22498828e+03,5.04285309e+02
1.92442665e+01,1.36366533e+04,1.90363008e+04,8.28880078e+03,5.79985168e+02
1.97651691e+01,1.43594980e+04,2.00122305e+04,8.14084668e+03,6.01927063e+02
2.02994785e+01,1.40804346e+04,1.95865449e+04,7.71211230e+03,6.44636353e+02
2.08475418e+01,1.41470410e+04,1.96625586e+04,8.25395996e+03,7.02386169e+02
2.14097099e+01,1.36425469e+04,1.89478711e+04,8.00153857e+03,6.19141602e+02
2.19863453e+01,1.12996680e+04,1.56570771e+04,6.44862549e+03,4.82239471e+02
2.25778236e+01,8.22545312e+03,1.13656074e+04,4.62551172e+03,3.14733246e+02
2.31845264e+01,5.84853320e+03,8.07616309e+03,3.41640698e+03,2.39326294e+02
2.38068466e+01,4.69613574e+03,6.49567871e+03,3.04361816e+03,2.35988663e+02
2.44451809e+01,3.73630029e+03,5.17584473e+03,2.60688501e+03,1.87771515e+02
2.50999470e+01,2.95426050e+03,4.09766406e+03,2.07751880e+03,1.12938103e+02
2.57715645e+01,1.94190454e+03,2.68573633e+03,1.12700146e+03,3.32416229e+01
2.64604683e+01,5.85657288e+02,7.98399292e+02,1.62651947e+02,9.46336240e-02
2.71671047e+01,1.88094238e+02,2.50724823e+02,7.44167042e+00,2.92962324e-03
2.78919277e+01,1.11185555e+02,1.48071732e+02,3.06918955e+00,5.43243950e-05
2.86354065e+01,6.09813194e+01,8.11777191e+01,1.38922882e+00,1.85690533e-05
2.93980217e+01,3.31274338e+01,4.40659370e+01,4.43336159e-01,1.26639789e-05
3.01802654e+01,1.55630932e+01,2.05043755e+01,8.58085826e-02,7.84224721e-06
3.09826431e+01,6.01908922e+00,7.81716537e+00,1.71560943e-02,3.95320467e-06
3.18056717e+01,1.86508930e+00,2.38624191e+00,3.39193502e-03,1.62259585e-06
3.26498833e+01,5.51195979e-01,6.98510766e-01,6.79213437e-04,5.93620200e-07
3.35158234e+01,1.75207973e-01,2.20732361e-01,1.34943562e-04,2.12589811e-07
3.44040565e+01,3.44028622e-02,4.24898714e-02,7.57055168e-05,4.42402062e-08
3.53151436e+01,6.21197047e-03,7.61320861e-03,1.65718902e-05,7.45856710e-09
3.62496834e+01,1.38633756e-03,1.72814331e-03,5.41106192e-06,1.93881466e-09
3.72082787e+01,4.10395354e-04,5.12558967e-04,1.90863307e-06,5.17954180e-10
3.81915474e+01,1.21587793e-04,1.50043808e-04,1.90794822e-07,1.19999580e-10
3.92001228e+01,2.90325006e-05,3.51257368e-05,2.98507956e-08,2.44559668e-11
4.02346535e+01,2.04098569e-06,2.42383317e-06,4.29575042e-09,2.16843926e-12
4.12958107e+01,6.21023730e-08,8.27078210e-08,3.67422287e-10,2.99589645e-13
4.23842850e+01,7.99283040e-09,1.11635456e-08,4.25145613e-11,5.17844231e-14
4.35007744e+01,1.68374537e-10,2.03247197e-10,5.16823823e-12,4.32434989e-16
4.46459999e+01,1.06114527e-11,1.16392521e-11,5.59842916e-13,1.37852313e-17
4.58207016e+01,4.77527794e-13,5.75342562e-13,2.11420423e-14,6.81715732e-19
4.70256386e+01,4.72794276e-14,5.97480100e-14,2.80165332e-16,7.33120290e-20
4.82615852e+01,6.65971566e-15,8.24761317e-15,1.37352166e-17,1.19241268e-20
4.95293465e+01,4.63584944e-16,5.83607977e-16,5.58534451e-20,1.17572647e-21
5.08297386e+01,2.12753401e-17,2.67287765e-17,4.88429432e-21,5.42595128e-23
5.21635971e+01,7.03415846e-20,8.45119898e-20,3.88528763e-22,1.16083187e-25
5.35317917e+01,3.60995530e-23,8.02274191e-23,1.16561559e-23,1.19306846e-28
5.49351997e+01,4.27838318e-24,4.88997126e-24,2.99846215e-26,6.55849488e-30
5.63747253e+01,6.02980354e-27,7.78001203e-27,5.72587639e-29,7.73502907e-32
5.78513031e+01,4.34506118e-28,5.14011780e-28,7.04896707e-31,1.02398663e-33
5.93278885e+01,6.68330087e-31,8.86742815e-31,1.39563608e-32,1.55168447e-36
6.08044662e+01,3.13429112e-32,3.89454650e-32,2.58351365e-34,9.20793221e-38
6.22810478e+01,3.58977699e-34,4.54610502e-34,6.03801455e-36,7.06254426e-40
6.37576256e+01,8.45707703e-36,1.05879152e-35,2.00869117e-37,0.00000000e+00
6.52341995e+01,3.34211074e-37,4.23678398e-37,7.91032983e-39,0.00000000e+00
6.67107849e+01,1.08544579e-38,1.37551457e-38,2.62042813e-40,0.00000000e+00
6.81873703e+01,4.21790838e-40,5.54914192e-40,0.00000000e+00,0.00000000e+00
6.96639481e+01,0.00000000e+00,1.40129846e-42,0.00000000e+00,0.00000000e+00
7.11405258e+01,0.00000000e+00,0.00000000e+00,0.00000000e+00,0.00000000e+00
7.26171036e+01,0.00000000e+00,0.00000000e+00,0.00000000e+00,0.00000000e+00
7.40936813e+01,0.00000000e+00,0.00000000e+00,0.00000000e+00,0.00000000e+00
7.55702591e+01,0.00000000e+00,0.00000000e+00,0.00000000e+00,0.00000000e+00
7.70468445e+01,0.00000000e+00,0.00000000e+00,0.00000000e+00,0.00000000e+00
7.85234222e+01,0.00000000e+00,0.00000000e+00,0.00000000e+00,0.00000000e+00
8.00000000e+01,0.00000000e+00,0.00000000e+00,0.00000000e+00,0.00000000e+00
