Height (km), 7_8 um ash conc (g/kg), 15_6 um ash conc (g/kg), 125 um ash conc (g/kg), 1 mm ash conc (g/kg)
0.00000000e+00,0.00000000e+00,0.00000000e+00,0.00000000e+00,0.00000000e+00
3.99999991e-02,2.04423709e-18,4.94967921e-18,1.95357602e-11,6.10894012e+00
7.99999982e-02,2.68639146e-16,6.45533815e-16,6.51277421e-10,1.24764872e+01
1.19999997e-01,9.95454973e-15,2.38721159e-14,8.03807865e-09,1.90251846e+01
1.59999996e-01,1.41252095e-13,3.39459119e-13,4.23652153e-08,2.78619041e+01
2.00000003e-01,2.35823188e-12,5.62722828e-12,1.46295150e-07,3.21776352e+01
2.39999995e-01,2.90740331e-11,6.95215413e-11,6.00622116e-07,4.21709824e+01
2.80000001e-01,3.01282443e-10,7.20574767e-10,2.10826488e-06,4.90469666e+01
3.19999993e-01,3.50478779e-09,8.39940473e-09,3.43385636e-06,5.98179970e+01
3.60000014e-01,3.85753900e-08,9.41187324e-08,4.52079894e-06,6.59728317e+01
4.00000006e-01,3.08156103e-07,7.63737944e-07,5.67624147e-06,7.76815567e+01
4.39999998e-01,2.59032777e-06,6.26626024e-06,7.29798603e-06,8.15319672e+01
4.79999989e-01,1.32364557e-05,2.93757330e-05,9.97446296e-06,9.49970474e+01
5.19999981e-01,5.06172037e-05,1.03136539e-04,1.45262456e-05,9.84969940e+01
5.60000002e-01,1.35587543e-04,2.54998420e-04,1.89815873e-05,1.13388184e+02
6.00000024e-01,3.31363321e-04,5.78110281e-04,3.94704621e-05,1.17939003e+02
6.41029537e-01,5.82667999e-04,9.37198347e-04,7.42054472e-05,1.32434036e+02
6.83115125e-01,8.30950914e-04,1.25319557e-03,1.50515742e-04,1.35648911e+02
7.26283848e-01,1.01535372e-03,1.46661373e-03,3.05861846e-04,1.45781250e+02
7.70563781e-01,1.13557617e-03,1.60026527e-03,6.87216234e-04,1.53255707e+02
8.15983355e-01,1.18179515e-03,1.68345263e-03,1.25948712e-03,1.67828323e+02
8.62571895e-01,1.21414859e-03,1.72720081e-03,2.54032109e-03,1.73811508e+02
9.10359621e-01,1.11462164e-03,1.61055208e-03,4.34083911e-03,1.88926804e+02
9.59377348e-01,1.06223114e-03,1.54748210e-03,6.30160328e-03,1.96690994e+02
1.00965667e+00,8.77188169e-04,1.27039687e-03,9.37655382e-03,2.08747925e+02
1.06123006e+00,7.11430330e-04,1.03266782e-03,1.29965488e-02,2.25270538e+02
1.11413085e+00,5.52743615e-04,8.00757261e-04,1.68406162e-02,2.40094269e+02
1.16839325e+00,4.38614050e-04,6.34350581e-04,1.97610483e-02,2.55486252e+02
1.22405231e+00,3.67356872e-04,5.29579178e-04,2.13779788e-02,2.72463898e+02
1.28114390e+00,3.22121079e-04,4.62256314e-04,2.33004037e-02,2.89504028e+02
1.33970511e+00,2.71669822e-04,3.89795168e-04,2.52453387e-02,3.12942993e+02
1.39977336e+00,2.06908711e+04,2.89683828e+04,1.94348047e+04,1.55311694e+03
1.46138775e+00,2.57994258e+04,3.60787500e+04,2.17744980e+04,1.66617090e+03
1.52458799e+00,1.55694648e+04,2.17671719e+04,1.32598770e+04,1.32244739e+03
1.58941495e+00,1.44446035e+04,2.02073418e+04,1.28630449e+04,1.49616919e+03
1.65591037e+00,1.41613691e+04,1.98172461e+04,1.28900352e+04,1.61300452e+03
1.72411728e+00,1.41086562e+04,1.97472109e+04,1.30153135e+04,1.68154614e+03
1.79407966e+00,1.41392207e+04,1.97925117e+04,1.31620107e+04,1.76472607e+03
1.86584306e+00,1.41961621e+04,1.98740312e+04,1.33012344e+04,1.79842969e+03
1.93945324e+00,1.42600977e+04,1.99649336e+04,1.34270430e+04,1.85895850e+03
2.01495814e+00,1.43208535e+04,2.00510586e+04,1.35347402e+04,1.88736633e+03
2.09240627e+00,1.43649141e+04,2.01135742e+04,1.36157324e+04,1.93047534e+03
2.17184782e+00,1.43976123e+04,2.01600352e+04,1.36791602e+04,1.95141064e+03
2.25333428e+00,1.44116855e+04,2.01802754e+04,1.37187686e+04,1.98255151e+03
2.33691788e+00,1.44095078e+04,2.01776836e+04,1.37392812e+04,1.99804578e+03
2.42265272e+00,1.44121055e+04,2.01817695e+04,1.37635664e+04,2.02590503e+03
2.51059437e+00,1.44339971e+04,2.02128320e+04,1.38053486e+04,2.04414050e+03
2.60079956e+00,1.45009023e+04,2.03069531e+04,1.38913779e+04,2.07557617e+03
2.69332647e+00,1.46174648e+04,2.04705996e+04,1.40238184e+04,2.10485645e+03
2.78823495e+00,1.47531953e+04,2.06609492e+04,1.41702441e+04,2.14087793e+03
2.88558602e+00,1.48868486e+04,2.08483340e+04,1.43117930e+04,2.16772314e+03
2.98544264e+00,1.50087227e+04,2.10191426e+04,1.44378945e+04,2.19597241e+03
3.08786964e+00,1.50977344e+04,2.11438203e+04,1.45273125e+04,2.21409766e+03
3.19293284e+00,1.51343223e+04,2.11950039e+04,1.45621953e+04,2.22368115e+03
3.30070019e+00,1.51126504e+04,2.11645527e+04,1.45377910e+04,2.22873779e+03
3.41124129e+00,1.50366025e+04,2.10579375e+04,1.44595879e+04,2.22223071e+03
3.52462745e+00,1.49175625e+04,2.08911035e+04,1.43391426e+04,2.22405005e+03
3.64093208e+00,1.47714355e+04,2.06863906e+04,1.41941523e+04,2.21081494e+03
3.76023054e+00,1.46391699e+04,2.05011641e+04,1.40656660e+04,2.22248022e+03
3.88259912e+00,1.45448594e+04,2.03691348e+04,1.39762568e+04,2.22601758e+03
4.00811720e+00,1.44988623e+04,2.03048242e+04,1.39360176e+04,2.25566382e+03
4.13686609e+00,1.44976367e+04,2.03032461e+04,1.39411250e+04,2.27921851e+03
4.26892853e+00,1.45455723e+04,2.03705195e+04,1.39943418e+04,2.32840112e+03
4.40439081e+00,1.46331641e+04,2.04932988e+04,1.40856338e+04,2.35661816e+03
4.54333878e+00,1.47484824e+04,2.06548945e+04,1.42039199e+04,2.41880420e+03
4.68586397e+00,1.48888701e+04,2.08515742e+04,1.43458984e+04,2.45203662e+03
4.83205652e+00,1.50441348e+04,2.10690625e+04,1.45009131e+04,2.50497485e+03
4.98201227e+00,1.51800107e+04,2.12593340e+04,1.46346094e+04,2.52991260e+03
5.13582754e+00,1.52926924e+04,2.14171016e+04,1.47445801e+04,2.56977344e+03
5.29360199e+00,1.53878330e+04,2.15502598e+04,1.48346602e+04,2.55849902e+03
5.45543718e+00,1.54460137e+04,2.16316133e+04,1.48863643e+04,2.57286084e+03
5.62143755e+00,1.54947188e+04,2.16997012e+04,1.49289297e+04,2.54312793e+03
5.79171038e+00,1.55382871e+04,2.17605371e+04,1.49632686e+04,2.54689331e+03
5.96636629e+00,1.55424414e+04,2.17661367e+04,1.49581738e+04,2.51127539e+03
6.14551687e+00,1.55358115e+04,2.17567266e+04,1.49456250e+04,2.51521680e+03
6.32927942e+00,1.55516709e+04,2.17787734e+04,1.49528047e+04,2.47566040e+03
6.51777077e+00,1.55145996e+04,2.17266895e+04,1.49087197e+04,2.49199438e+03
6.71111441e+00,1.54448281e+04,2.16289102e+04,1.48376328e+04,2.45081616e+03
6.90943432e+00,1.54116064e+04,2.15822773e+04,1.48005352e+04,2.46818555e+03
7.11285782e+00,1.53449883e+04,2.14889531e+04,1.47359434e+04,2.44518262e+03
7.32151794e+00,1.52991387e+04,2.14248633e+04,1.46978906e+04,2.46235767e+03
7.53554821e+00,1.53435410e+04,2.14871250e+04,1.47457842e+04,2.46403394e+03
7.75508738e+00,1.54275059e+04,2.16048887e+04,1.48388359e+04,2.48111548e+03
7.98027754e+00,1.55553398e+04,2.17840762e+04,1.49768809e+04,2.47744629e+03
8.21126270e+00,1.57222363e+04,2.20179609e+04,1.51582568e+04,2.48800781e+03
8.44819450e+00,1.59389004e+04,2.23215918e+04,1.53979707e+04,2.48200513e+03
8.69122219e+00,1.61445576e+04,2.26096562e+04,1.56312471e+04,2.47979712e+03
8.94050789e+00,1.63353691e+04,2.28771016e+04,1.58712520e+04,2.46970996e+03
9.19620800e+00,1.65876250e+04,2.32303398e+04,1.61696104e+04,2.48691968e+03
9.45849037e+00,1.66665645e+04,2.33406602e+04,1.63027188e+04,2.48473706e+03
9.72752285e+00,1.68499375e+04,2.35977227e+04,1.65732637e+04,2.51387964e+03
1.00034800e+01,1.72140547e+04,2.41074180e+04,1.70290977e+04,2.56033179e+03
1.02865391e+01,1.71353320e+04,2.39977676e+04,1.71183203e+04,2.57356055e+03
1.05768833e+01,1.72280449e+04,2.41310742e+04,1.74593984e+04,2.62624512e+03
1.08747025e+01,1.77348164e+04,2.48390586e+04,1.81621133e+04,2.69917188e+03
1.11801853e+01,1.71780996e+04,2.40571055e+04,1.79042031e+04,2.67622559e+03
1.14935322e+01,1.74404023e+04,2.44252148e+04,1.84255684e+04,2.76054761e+03
1.18149433e+01,1.82072422e+04,2.54984961e+04,1.92778086e+04,2.84337891e+03
1.21446266e+01,1.72288496e+04,2.41298418e+04,1.85417188e+04,2.77311523e+03
1.24827967e+01,1.89475508e+04,2.65393066e+04,2.03150078e+04,3.01292261e+03
1.28296700e+01,1.95743926e+04,2.74171621e+04,2.09671289e+04,3.04384766e+03
1.31854706e+01,1.94834902e+04,2.72954570e+04,2.13017578e+04,3.13891724e+03
1.35504293e+01,2.21598398e+04,3.10510586e+04,2.46921445e+04,3.48662598e+03
1.39247818e+01,2.43978906e+04,3.41952500e+04,2.72292148e+04,3.68491675e+03
1.43087692e+01,2.38257500e+04,3.34090312e+04,2.66739766e+04,3.52027979e+03
1.47026405e+01,2.21064551e+04,3.10172930e+04,2.49755957e+04,3.25704028e+03
1.51066484e+01,2.00015820e+04,2.80872891e+04,2.30376387e+04,3.03496460e+03
1.55210552e+01,1.99839551e+04,2.80707832e+04,2.32323379e+04,3.03964355e+03
1.59461288e+01,2.05760410e+04,2.88951543e+04,2.37964961e+04,3.06250439e+03
1.63821430e+01,2.02010020e+04,2.83662090e+04,2.37475625e+04,2.99395337e+03
1.68293781e+01,2.14499277e+04,3.01134863e+04,2.49626758e+04,3.15010522e+03
1.72881241e+01,2.49948594e+04,3.50973789e+04,2.83703359e+04,3.52909204e+03
1.77586803e+01,2.82340742e+04,3.96482812e+04,3.09875371e+04,3.72829517e+03
1.82413464e+01,2.58257109e+04,3.62795117e+04,2.86353984e+04,3.49373706e+03
1.87364349e+01,2.85112852e+04,4.00454570e+04,3.11307227e+04,3.84194922e+03
1.92442665e+01,3.20172500e+04,4.49504062e+04,3.32812070e+04,4.15230664e+03
1.97651691e+01,3.27062207e+04,4.59015859e+04,3.31515859e+04,4.04753174e+03
2.02994785e+01,3.59451406e+04,5.04366562e+04,3.48907266e+04,4.12772168e+03
2.08475418e+01,3.90145898e+04,5.47018906e+04,3.64781406e+04,4.29103125e+03
2.14097099e+01,3.96098555e+04,5.54843750e+04,3.62676719e+04,4.39412305e+03
2.19863453e+01,4.34485195e+04,6.08211172e+04,3.94192070e+04,4.65911182e+03
2.25778236e+01,4.93889141e+04,6.91089844e+04,4.39113047e+04,5.09990625e+03
2.31845264e+01,5.01067266e+04,7.00633125e+04,4.48157188e+04,5.33541895e+03
2.38068466e+01,5.39839141e+04,7.55100234e+04,4.93698633e+04,5.55137695e+03
2.44451809e+01,6.67133125e+04,9.32949688e+04,5.82673242e+04,5.90518164e+03
2.50999470e+01,7.13903906e+04,9.97518125e+04,6.01253164e+04,5.58372070e+03
2.57715645e+01,6.10381172e+04,8.52487266e+04,5.09721992e+04,5.02018848e+03
2.64604683e+01,4.94429961e+04,6.90682578e+04,4.26646641e+04,4.62681641e+03
2.71671047e+01,5.06359961e+04,7.07742266e+04,4.46820195e+04,4.38769727e+03
2.78919277e+01,5.14428672e+04,7.18719531e+04,4.35672422e+04,2.94769336e+03
2.86354065e+01,4.40924375e+04,6.15473555e+04,3.47255938e+04,1.45757397e+03
2.93980217e+01,3.98688711e+04,5.56832617e+04,3.24680039e+04,1.56264478e+03
3.01802654e+01,3.60206953e+04,5.02934570e+04,2.79835469e+04,8.19018005e+02
3.09826431e+01,2.04817559e+04,2.85450859e+04,1.34521602e+04,4.27310028e+01
3.18056717e+01,5.92044434e+03,8.21347559e+03,2.69377344e+03,8.10663319e+00
3.26498833e+01,2.77274243e+03,3.85080103e+03,1.41099487e+03,1.30975282e+00
3.35158234e+01,1.58001086e+03,2.18170801e+03,5.41565979e+02,3.56000274e-01
3.44040565e+01,8.76915405e+02,1.20836279e+03,3.14035431e+02,1.64536029e-01
3.53151436e+01,3.53524994e+02,4.84436737e+02,7.25403137e+01,2.89311372e-02
3.62496834e+01,1.44520782e+02,1.97421371e+02,2.20635853e+01,1.49551863e-02
3.72082787e+01,4.63749237e+01,6.30514755e+01,6.94900227e+00,4.39865887e-03
3.81915474e+01,2.03909893e+01,2.79478931e+01,6.04958916e+00,2.45509436e-05
3.92001228e+01,1.26337185e+01,1.72689400e+01,2.80845523e+00,1.32000168e-05
4.02346535e+01,5.39595175e+00,7.32740068e+00,7.03335047e-01,1.46952482e-06
4.12958107e+01,7.27305532e-01,9.65327501e-01,3.03999595e-02,6.52238271e-07
4.23842850e+01,5.63881733e-02,7.08746612e-02,1.61637232e-04,4.94732042e-08
4.35007744e+01,4.30542231e-03,5.07005630e-03,1.04530284e-06,1.70132231e-09
4.46459999e+01,4.10423760e-04,4.63597302e-04,7.33344478e-08,9.37049743e-11
4.58207016e+01,2.84234266e-05,3.06324255e-05,1.17840315e-08,5.66175492e-12
4.70256386e+01,1.34335532e-05,1.53619585e-05,2.46744647e-09,2.23720998e-12
4.82615852e+01,1.96916176e-07,2.12411095e-07,1.23767468e-10,4.27536797e-14
4.95293465e+01,3.04745313e-08,3.91617334e-08,1.33861429e-11,7.41285034e-15
5.08297386e+01,1.31211186e-09,1.29181288e-09,7.63999703e-13,1.70328416e-17
5.21635971e+01,3.40480803e-11,4.35876717e-11,2.93102436e-14,1.79694102e-17
5.35317917e+01,2.56328942e-12,2.88873114e-12,1.63510785e-15,2.39614604e-19
5.49351997e+01,4.04880258e-14,4.93322695e-14,1.41304749e-17,1.60297489e-20
5.63747253e+01,2.46893036e-15,3.19785812e-15,1.72867480e-17,2.41651345e-22
5.78513031e+01,1.53045404e-17,1.55730680e-17,8.59449300e-21,1.24157074e-23
5.93278885e+01,1.96954036e-17,2.35954759e-17,1.26175675e-20,2.32054553e-25
6.08044662e+01,3.53538829e-19,6.94986139e-19,1.67660155e-22,1.44410742e-26
6.22810478e+01,1.63509874e-20,1.90567727e-20,1.21926846e-23,4.50580844e-28
6.37576256e+01,1.03490826e-21,1.69257895e-21,3.91254227e-25,2.66153979e-29
6.52341995e+01,1.66682460e-23,2.18947051e-23,1.42289168e-26,8.62222943e-31
6.67107849e+01,1.39713567e-24,2.40560806e-24,7.23838236e-28,5.51593789e-32
6.81873703e+01,2.23973219e-26,3.44171446e-26,2.51103152e-29,1.40754456e-33
6.96639481e+01,2.39792491e-27,3.93960911e-27,1.74083830e-30,1.57801013e-34
7.11405258e+01,5.45650018e-29,8.10837511e-29,5.05971148e-32,5.39466959e-36
7.26171036e+01,2.52993769e-30,4.26065658e-30,3.68938343e-33,5.09025860e-37
7.40936813e+01,3.88822028e-32,5.75651868e-32,8.30238344e-35,1.16013500e-38
7.55702591e+01,1.40876514e-33,2.43408017e-33,6.75074984e-36,6.61412875e-40
7.70468445e+01,2.13554937e-35,1.73103453e-35,1.17393779e-37,0.00000000e+00
7.85234222e+01,1.03088905e-36,9.49261911e-37,6.01437301e-39,0.00000000e+00
8.00000000e+01,1.94479196e-37,1.82572374e-37,8.74410242e-40,0.00000000e+00
