Height (km), 7_8 um ash conc (g/kg), 15_6 um ash conc (g/kg), 125 um ash conc (g/kg), 1 mm ash conc (g/kg)
0.00000000e+00,0.00000000e+00,0.00000000e+00,0.00000000e+00,0.00000000e+00
3.99999991e-02,7.45754078e-05,1.71800901e-04,6.66308776e-02,1.18370371e+01
7.99999982e-02,2.38493900e-04,5.05873933e-04,6.54939190e-02,1.21790171e+01
1.19999997e-01,4.60676820e-04,9.33449366e-04,6.40756562e-02,1.22572384e+01
1.59999996e-01,9.56085161e-04,1.94116216e-03,6.16754554e-02,1.25432615e+01
2.00000003e-01,2.49928492e-03,4.82553616e-03,5.96667901e-02,1.26421394e+01
2.39999995e-01,4.63046320e-03,8.40342231e-03,5.83750717e-02,1.28530149e+01
2.80000001e-01,6.85131829e-03,1.20186480e-02,5.77224679e-02,1.29487057e+01
3.19999993e-01,9.37809329e-03,1.59631222e-02,5.77062592e-02,1.30935011e+01
3.60000014e-01,1.27746556e-02,2.11636089e-02,5.90333715e-02,1.31944933e+01
4.00000006e-01,1.70016512e-02,2.74075605e-02,6.07906431e-02,1.33125772e+01
4.39999998e-01,2.17797700e-02,3.43741626e-02,6.40520900e-02,1.34009399e+01
4.79999989e-01,2.71960944e-02,4.23880778e-02,6.82785287e-02,1.34764261e+01
5.19999981e-01,3.33928950e-02,5.18081822e-02,7.40458965e-02,1.35323915e+01
5.60000002e-01,4.02364545e-02,6.24614581e-02,8.26250091e-02,1.35947628e+01
6.00000024e-01,4.87505831e-02,7.55988583e-02,9.32700336e-02,1.36618786e+01
6.41029537e-01,5.90072758e-02,9.11569670e-02,1.11946464e-01,1.37539625e+01
6.83115125e-01,7.05165789e-02,1.08094007e-01,1.22813001e-01,1.38597755e+01
7.26283848e-01,8.37855786e-02,1.26431704e-01,1.34241670e-01,1.39734440e+01
7.70563781e-01,9.78520215e-02,1.44262597e-01,1.49709776e-01,1.40863152e+01
8.15983355e-01,1.10265695e-01,1.58130854e-01,1.72191143e-01,1.42654266e+01
8.62571895e-01,1.16193645e-01,1.63085908e-01,1.99136466e-01,1.43320475e+01
9.10359621e-01,1.16332464e-01,1.62360236e-01,2.35300809e-01,1.45920506e+01
9.59377348e-01,1.15485206e-01,1.61888123e-01,2.65095383e-01,1.47910194e+01
1.00965667e+00,1.14829965e-01,1.62391409e-01,2.98385561e-01,1.50769863e+01
1.06123006e+00,1.14091553e-01,1.62446946e-01,3.40292215e-01,1.53431902e+01
1.11413085e+00,1.14210621e-01,1.64470479e-01,3.82815868e-01,1.55935888e+01
1.16839325e+00,1.16722919e-01,1.69907093e-01,4.22944099e-01,1.62921925e+01
1.22405231e+00,1.22238219e-01,1.80196226e-01,5.00322342e-01,1.63757935e+01
1.28114390e+00,1.31338403e-01,1.94637805e-01,5.53073049e-01,1.75208263e+01
1.33970511e+00,1.43465623e-01,2.12715060e-01,6.49249434e-01,1.67303162e+01
1.39977336e+00,2.07158574e+04,2.90042188e+04,1.95128008e+04,1.28700146e+03
1.46138775e+00,2.63886250e+04,3.69025391e+04,2.22669277e+04,1.34469116e+03
1.52458799e+00,1.58547900e+04,2.21664102e+04,1.35416660e+04,9.51394043e+02
1.58941495e+00,1.48521104e+04,2.07783867e+04,1.32836729e+04,1.15858289e+03
1.65591037e+00,1.46515820e+04,2.05041113e+04,1.33889590e+04,1.27343713e+03
1.72411728e+00,1.46473350e+04,2.05020430e+04,1.35638008e+04,1.36326001e+03
1.79407966e+00,1.47227070e+04,2.06101992e+04,1.37566406e+04,1.43144678e+03
1.86584306e+00,1.48500078e+04,2.07904375e+04,1.39699531e+04,1.50362915e+03
1.93945324e+00,1.50413320e+04,2.10598828e+04,1.42239551e+04,1.55866931e+03
2.01495814e+00,1.52554072e+04,2.13607266e+04,1.44792383e+04,1.61619434e+03
2.09240627e+00,1.54141797e+04,2.15836699e+04,1.46595977e+04,1.64621106e+03
2.17184782e+00,1.54236484e+04,2.15971172e+04,1.46772754e+04,1.65801660e+03
2.25333428e+00,1.52466914e+04,2.13493242e+04,1.45075938e+04,1.64207715e+03
2.33691788e+00,1.49229502e+04,2.08959844e+04,1.41952852e+04,1.61045850e+03
2.42265272e+00,1.45304062e+04,2.03464199e+04,1.38205898e+04,1.57509668e+03
2.51059437e+00,1.42335615e+04,1.99312461e+04,1.35558203e+04,1.56418750e+03
2.60079956e+00,1.42006992e+04,1.98861543e+04,1.35662783e+04,1.59392908e+03
2.69332647e+00,1.44222441e+04,2.01974375e+04,1.38275859e+04,1.65364355e+03
2.78823495e+00,1.47815400e+04,2.07015000e+04,1.42197891e+04,1.72736487e+03
2.88558602e+00,1.52190312e+04,2.13149531e+04,1.46865215e+04,1.80818701e+03
2.98544264e+00,1.56219248e+04,2.18797090e+04,1.51091016e+04,1.87603625e+03
3.08786964e+00,1.58992461e+04,2.22683906e+04,1.53994365e+04,1.92182788e+03
3.19293284e+00,1.61326113e+04,2.25954141e+04,1.56421973e+04,1.95850098e+03
3.30070019e+00,1.62690098e+04,2.27864414e+04,1.57785391e+04,1.97251990e+03
3.41124129e+00,1.63011992e+04,2.28313047e+04,1.57988828e+04,1.96648572e+03
3.52462745e+00,1.64222402e+04,2.30006445e+04,1.59069102e+04,1.97163318e+03
3.64093208e+00,1.67272168e+04,2.34277070e+04,1.61969131e+04,2.00044434e+03
3.76023054e+00,1.70811973e+04,2.39229473e+04,1.65117129e+04,2.02205566e+03
3.88259912e+00,1.72002109e+04,2.40888457e+04,1.65889492e+04,2.01330359e+03
4.00811720e+00,1.71980039e+04,2.40849004e+04,1.65439141e+04,1.98754480e+03
4.13686609e+00,1.69188516e+04,2.36929414e+04,1.62227500e+04,1.92944055e+03
4.26892853e+00,1.63357705e+04,2.28757188e+04,1.56256035e+04,1.84734277e+03
4.40439081e+00,1.56486602e+04,2.19132656e+04,1.49464834e+04,1.76513562e+03
4.54333878e+00,1.49285664e+04,2.09049922e+04,1.42528242e+04,1.68883057e+03
4.68586397e+00,1.44451885e+04,2.02285664e+04,1.38042773e+04,1.64813831e+03
4.83205652e+00,1.43499746e+04,2.00959434e+04,1.37418096e+04,1.65948401e+03
4.98201227e+00,1.45476514e+04,2.03737734e+04,1.39778408e+04,1.71236792e+03
5.13582754e+00,1.50402324e+04,2.10644141e+04,1.44941074e+04,1.79712268e+03
5.29360199e+00,1.56102305e+04,2.18632129e+04,1.50798711e+04,1.88835718e+03
5.45543718e+00,1.60561680e+04,2.24879863e+04,1.55328447e+04,1.95300464e+03
5.62143755e+00,1.60085381e+04,2.24207695e+04,1.54756211e+04,1.94407495e+03
5.79171038e+00,1.56128477e+04,2.18671211e+04,1.51278701e+04,1.92184363e+03
5.96636629e+00,1.58801641e+04,2.22422227e+04,1.54174141e+04,1.96133069e+03
6.14551687e+00,1.59349033e+04,2.23178770e+04,1.54296387e+04,1.94637866e+03
6.32927942e+00,1.62695371e+04,2.27878379e+04,1.58224199e+04,2.02735645e+03
6.51777077e+00,1.88367188e+04,2.63838203e+04,1.83241094e+04,2.32075879e+03
6.71111441e+00,1.95650293e+04,2.74010449e+04,1.89088555e+04,2.33781519e+03
6.90943432e+00,1.96131152e+04,2.74674473e+04,1.89185195e+04,2.32316895e+03
7.11285782e+00,1.90709922e+04,2.67059297e+04,1.82822188e+04,2.20150098e+03
7.32151794e+00,1.66552383e+04,2.33234277e+04,1.59565244e+04,1.93838098e+03
7.53554821e+00,1.61829678e+04,2.26635762e+04,1.55396846e+04,1.90169019e+03
7.75508738e+00,1.58336016e+04,2.21727031e+04,1.51424854e+04,1.85235217e+03
7.98027754e+00,1.53395684e+04,2.14850801e+04,1.48585732e+04,1.91670349e+03
8.21126270e+00,1.86978066e+04,2.61888867e+04,1.81114785e+04,2.31084937e+03
8.44819450e+00,2.01798672e+04,2.82578887e+04,1.92809961e+04,2.36236157e+03
8.69122219e+00,1.81753945e+04,2.54505742e+04,1.73718066e+04,2.17699487e+03
8.94050789e+00,1.84100938e+04,2.57773711e+04,1.75261641e+04,2.17731104e+03
9.19620800e+00,1.46879258e+04,2.05618262e+04,1.38468154e+04,1.71970593e+03
9.45849037e+00,8.98248633e+03,1.25761289e+04,8.54809961e+03,1.18404370e+03
9.72752285e+00,7.47656836e+03,1.04721055e+04,7.30642871e+03,1.11014331e+03
1.00034800e+01,8.60743262e+03,1.20552871e+04,8.41434961e+03,1.23560181e+03
1.02865391e+01,9.18089062e+03,1.28575078e+04,9.01507520e+03,1.33781531e+03
1.05768833e+01,1.08727930e+04,1.52279883e+04,1.07707793e+04,1.56253882e+03
1.08747025e+01,1.26903867e+04,1.77700664e+04,1.24723750e+04,1.70232312e+03
1.11801853e+01,1.14114316e+04,1.59759961e+04,1.12672275e+04,1.57066125e+03
1.14935322e+01,9.90244141e+03,1.38656836e+04,1.01434727e+04,1.50974060e+03
1.18149433e+01,1.20457441e+04,1.68684805e+04,1.25568174e+04,1.77053613e+03
1.21446266e+01,1.48690039e+04,2.08208301e+04,1.56492852e+04,2.00798364e+03
1.24827967e+01,1.11144082e+04,1.55626152e+04,1.27289941e+04,1.58626318e+03
1.28296700e+01,6.06246875e+03,8.49447168e+03,9.14612891e+03,1.17685730e+03
1.31854706e+01,5.60428613e+03,7.85846338e+03,1.03480996e+04,1.22255164e+03
1.35504293e+01,6.15850537e+03,8.64155566e+03,1.30773105e+04,1.35542053e+03
1.39247818e+01,6.18559619e+03,8.69036133e+03,1.57675938e+04,1.41923206e+03
1.43087692e+01,6.29937891e+03,8.87182129e+03,1.83113711e+04,1.48301587e+03
1.47026405e+01,7.59229102e+03,1.07144688e+04,2.08454688e+04,1.67479224e+03
1.51066484e+01,1.03100498e+04,1.45481807e+04,2.36143496e+04,1.89395532e+03
1.55210552e+01,1.16482441e+04,1.64559570e+04,2.51182461e+04,1.91184351e+03
1.59461288e+01,1.25517646e+04,1.77820781e+04,2.67601074e+04,1.87285571e+03
1.63821430e+01,1.49410859e+04,2.12251074e+04,2.84489258e+04,1.87885156e+03
1.68293781e+01,1.79789062e+04,2.56372383e+04,2.84222988e+04,1.86961853e+03
1.72881241e+01,2.14771328e+04,3.06209023e+04,2.87370664e+04,1.89706567e+03
1.77586803e+01,2.91243320e+04,4.12359922e+04,3.08604922e+04,2.16733447e+03
1.82413464e+01,3.76899062e+04,5.31190469e+04,3.27356836e+04,2.31953320e+03
1.87364349e+01,4.07794062e+04,5.73045156e+04,3.18549414e+04,2.28328955e+03
1.92442665e+01,3.84842773e+04,5.38435391e+04,2.92152461e+04,2.16059619e+03
1.97651691e+01,3.67719648e+04,5.12793047e+04,2.79045684e+04,2.04882812e+03
2.02994785e+01,3.38101562e+04,4.70458633e+04,2.55461934e+04,1.35299463e+03
2.08475418e+01,3.22200059e+04,4.46835664e+04,1.87462637e+04,9.12452271e+02
2.14097099e+01,2.66296523e+04,3.67634219e+04,1.28176328e+04,8.55069946e+02
2.19863453e+01,2.03275781e+04,2.80640488e+04,1.09745459e+04,7.60942139e+02
2.25778236e+01,1.69276992e+04,2.34198594e+04,1.03497285e+04,7.88217407e+02
2.31845264e+01,1.41783193e+04,1.96568691e+04,9.30845312e+03,5.83898254e+02
2.38068466e+01,8.68685156e+03,1.20242080e+04,4.91389307e+03,2.43022491e+02
2.44451809e+01,5.11322559e+03,7.06450879e+03,2.62080957e+03,1.26574440e+02
2.50999470e+01,2.63074951e+03,3.62276807e+03,1.07175476e+03,3.30326042e+01
2.57715645e+01,1.70319312e+03,2.33783154e+03,5.17009888e+02,6.44904733e-01
2.64604683e+01,1.81680078e+03,2.50448682e+03,5.86631958e+02,3.52265164e-02
2.71671047e+01,1.46276636e+03,2.01001575e+03,3.72550354e+02,1.70682054e-02
2.78919277e+01,7.53997070e+02,1.02693555e+03,9.96380157e+01,1.27591183e-02
2.86354065e+01,5.05632263e+02,6.85824158e+02,5.87428589e+01,7.86570017e-04
2.93980217e+01,2.12828308e+02,2.86725403e+02,1.54960670e+01,3.54634656e-04
3.01802654e+01,1.22858017e+02,1.65189484e+02,7.74929619e+00,1.18892087e-04
3.09826431e+01,5.27413826e+01,7.04709167e+01,2.38593912e+00,2.67739488e-05
3.18056717e+01,1.09536781e+01,1.43955307e+01,2.36755967e-01,8.25648203e-06
3.26498833e+01,1.54699898e+00,1.95115709e+00,3.86809907e-03,1.17986292e-06
3.35158234e+01,3.30275625e-01,4.06720191e-01,1.03002210e-04,3.18314335e-07
3.44040565e+01,1.02629445e-01,1.24771610e-01,1.47188221e-05,1.31768317e-07
3.53151436e+01,3.46453451e-02,4.16060835e-02,6.03145736e-06,5.57155246e-08
3.62496834e+01,6.28693262e-03,7.47737382e-03,2.27799705e-06,1.70858332e-08
3.72082787e+01,1.03425479e-03,1.22572680e-03,9.21281355e-07,3.77267417e-09
3.81915474e+01,2.41128524e-04,2.90350610e-04,2.19169578e-07,1.10609721e-09
3.92001228e+01,8.33180275e-06,9.33788669e-06,2.97276301e-08,2.37220330e-11
4.02346535e+01,4.98987220e-07,5.86266424e-07,3.13703197e-09,1.70547127e-12
4.12958107e+01,1.11838858e-07,1.33945790e-07,8.97682831e-11,6.99107276e-13
4.23842850e+01,2.60595234e-09,3.23021587e-09,4.08271594e-12,1.39389639e-14
4.35007744e+01,3.30568434e-10,3.99440675e-10,2.32758555e-13,2.37060043e-15
4.46459999e+01,1.34470586e-11,1.62166721e-11,1.47462710e-14,7.99524788e-17
4.58207016e+01,4.44264037e-13,5.36257345e-13,2.29195151e-16,1.47590652e-18
4.70256386e+01,9.48158263e-15,1.13157054e-14,2.33562304e-18,2.97791903e-20
4.82615852e+01,1.51616873e-16,1.79626995e-16,5.80901079e-19,9.16983402e-23
4.95293465e+01,2.53213882e-18,2.85662647e-18,6.73926219e-22,1.89219608e-24
5.08297386e+01,1.19158766e-19,1.48401553e-19,1.01336864e-22,3.34373486e-26
5.21635971e+01,1.40245141e-21,2.04235578e-21,2.36970513e-25,4.28529620e-28
5.35317917e+01,1.60159858e-23,2.13218658e-23,2.42636620e-26,1.29520639e-29
5.49351997e+01,1.60876842e-25,2.10650168e-25,1.37477092e-28,3.80795823e-31
5.63747253e+01,3.07216699e-27,4.35177391e-27,2.00502578e-29,1.22519146e-32
5.78513031e+01,5.35750076e-29,6.35905174e-29,2.32097998e-31,3.97402865e-34
5.93278885e+01,2.61768749e-30,3.33897083e-30,1.37388665e-32,1.67582877e-35
6.08044662e+01,4.45349142e-32,5.77553817e-32,1.96252823e-34,3.67123382e-37
6.22810478e+01,2.02558707e-33,2.70342799e-33,7.66057773e-36,1.59677960e-38
6.37576256e+01,4.56849968e-35,6.34499995e-35,1.45586503e-37,3.32107736e-40
6.52341995e+01,1.26571582e-36,1.64769310e-36,3.27903841e-39,5.60519386e-42
6.67107849e+01,4.94181916e-38,6.61917343e-38,8.12753109e-41,0.00000000e+00
6.81873703e+01,1.18269590e-39,1.69557114e-39,0.00000000e+00,0.00000000e+00
6.96639481e+01,2.10194770e-41,3.08285662e-41,0.00000000e+00,0.00000000e+00
7.11405258e+01,0.00000000e+00,0.00000000e+00,0.00000000e+00,0.00000000e+00
7.26171036e+01,0.00000000e+00,0.00000000e+00,0.00000000e+00,0.00000000e+00
7.40936813e+01,0.00000000e+00,0.00000000e+00,0.00000000e+00,0.00000000e+00
7.55702591e+01,0.00000000e+00,0.00000000e+00,0.00000000e+00,0.00000000e+00
7.70468445e+01,0.00000000e+00,0.00000000e+00,0.00000000e+00,0.00000000e+00
7.85234222e+01,0.00000000e+00,0.00000000e+00,0.00000000e+00,0.00000000e+00
8.00000000e+01,0.00000000e+00,0.00000000e+00,0.00000000e+00,0.00000000e+00
