Height (km), 7_8 um ash conc (g/kg), 15_6 um ash conc (g/kg), 125 um ash conc (g/kg), 1 mm ash conc (g/kg)
0.00000000e+00,0.00000000e+00,0.00000000e+00,0.00000000e+00,0.00000000e+00
3.99999991e-02,1.03713019e-05,1.97761910e-05,7.88416993e-03,1.37493098e+00
7.99999982e-02,1.90330502e-05,3.59855403e-05,9.03957989e-03,1.63324857e+00
1.19999997e-01,3.30141702e-05,6.10793068e-05,9.69313271e-03,1.72510493e+00
1.59999996e-01,5.56608065e-05,1.00713711e-04,1.07958186e-02,1.93495715e+00
2.00000003e-01,1.15134855e-04,1.97982547e-04,1.19394539e-02,2.01806641e+00
2.39999995e-01,2.15232474e-04,3.60678736e-04,1.31251356e-02,2.19677186e+00
2.80000001e-01,3.46408517e-04,5.68268413e-04,1.39074279e-02,2.24990892e+00
3.19999993e-01,5.50525787e-04,8.83946428e-04,1.49360243e-02,2.38191032e+00
3.60000014e-01,8.31369427e-04,1.31405925e-03,1.58746000e-02,2.49262524e+00
4.00000006e-01,1.22505997e-03,1.90387224e-03,1.72435436e-02,2.61141849e+00
4.39999998e-01,1.63631188e-03,2.51458096e-03,1.87764447e-02,2.73545790e+00
4.79999989e-01,2.17422098e-03,3.30875744e-03,2.06391942e-02,2.85841084e+00
5.19999981e-01,2.92021083e-03,4.40690108e-03,2.33949069e-02,2.99650311e+00
5.60000002e-01,3.91008426e-03,5.84973209e-03,2.66320426e-02,3.13549399e+00
6.00000024e-01,5.41437510e-03,8.04274809e-03,3.11197098e-02,3.27357101e+00
6.41029537e-01,7.07125803e-03,1.04628187e-02,3.64869162e-02,3.43039417e+00
6.83115125e-01,9.36285406e-03,1.38359908e-02,4.27787453e-02,3.60876894e+00
7.26283848e-01,1.27854412e-02,1.88946519e-02,5.13555855e-02,3.78599119e+00
7.70563781e-01,1.69137157e-02,2.50315499e-02,6.01603836e-02,3.99332142e+00
8.15983355e-01,2.31180564e-02,3.42927650e-02,7.11162314e-02,4.19077158e+00
8.62571895e-01,3.19579504e-02,4.74720784e-02,8.11130330e-02,4.39276648e+00
9.10359621e-01,4.58960123e-02,6.79714829e-02,9.06624198e-02,4.63090277e+00
9.59377348e-01,6.39381558e-02,9.37239528e-02,9.54740271e-02,4.91591549e+00
1.00965667e+00,8.54124278e-02,1.23793446e-01,9.65592414e-02,5.12247038e+00
1.06123006e+00,1.09822616e-01,1.57632425e-01,9.47604924e-02,5.44876909e+00
1.11413085e+00,1.33047208e-01,1.89701110e-01,9.16514322e-02,6.33472395e+00
1.16839325e+00,1.54611096e-01,2.19067171e-01,8.95306170e-02,6.78654528e+00
1.22405231e+00,1.71094358e-01,2.40404457e-01,8.84213969e-02,7.71701670e+00
1.28114390e+00,1.81977972e-01,2.52934963e-01,8.93616080e-02,1.04656801e+01
1.33970511e+00,1.82825550e-01,2.51409292e-01,9.34178308e-02,8.75707245e+00
1.39977336e+00,2.01650566e+04,2.82475312e+04,1.99895547e+04,2.07380566e+03
1.46138775e+00,2.54637344e+04,3.56492188e+04,2.39247578e+04,1.98112158e+03
1.52458799e+00,1.48312002e+04,2.07622676e+04,1.40066035e+04,1.30724426e+03
1.58941495e+00,1.45412314e+04,2.03645078e+04,1.41355801e+04,1.59436853e+03
1.65591037e+00,1.57942334e+04,2.21238945e+04,1.55848867e+04,1.90110156e+03
1.72411728e+00,1.73299238e+04,2.42766738e+04,1.71847305e+04,2.11403491e+03
1.79407966e+00,1.77604375e+04,2.48782305e+04,1.75336602e+04,2.07000195e+03
1.86584306e+00,1.64938418e+04,2.31014785e+04,1.61487051e+04,1.81183728e+03
1.93945324e+00,1.43775059e+04,2.01354512e+04,1.39721895e+04,1.51742041e+03
2.01495814e+00,1.22605684e+04,1.71699219e+04,1.18650010e+04,1.28466650e+03
2.09240627e+00,1.06726514e+04,1.49466230e+04,1.03423330e+04,1.15986438e+03
2.17184782e+00,9.91547656e+03,1.38875859e+04,9.66706055e+03,1.14685913e+03
2.25333428e+00,9.92158984e+03,1.38978184e+04,9.75162109e+03,1.23652490e+03
2.33691788e+00,1.04904717e+04,1.46966699e+04,1.04102979e+04,1.41254199e+03
2.42265272e+00,1.16431543e+04,1.63136191e+04,1.16673418e+04,1.68122449e+03
2.51059437e+00,1.36423887e+04,1.91167949e+04,1.37938994e+04,2.09639600e+03
2.60079956e+00,1.62739570e+04,2.28058809e+04,1.65727852e+04,2.61613354e+03
2.69332647e+00,1.87340430e+04,2.62540703e+04,1.91582129e+04,3.08448706e+03
2.78823495e+00,2.06365234e+04,2.89204922e+04,2.11592344e+04,3.42950488e+03
2.88558602e+00,2.19436934e+04,3.07518848e+04,2.24992500e+04,3.59999951e+03
2.98544264e+00,2.22611914e+04,3.11950801e+04,2.27427949e+04,3.51899438e+03
3.08786964e+00,2.16723730e+04,3.03678633e+04,2.20277383e+04,3.27023828e+03
3.19293284e+00,2.06287930e+04,2.89035117e+04,2.08431992e+04,2.96429785e+03
3.30070019e+00,1.92166094e+04,2.69228301e+04,1.92885547e+04,2.62915894e+03
3.41124129e+00,1.78485488e+04,2.50047539e+04,1.78218281e+04,2.36439258e+03
3.52462745e+00,1.69789414e+04,2.37856914e+04,1.68916445e+04,2.20387427e+03
3.64093208e+00,1.65876738e+04,2.32368672e+04,1.64487988e+04,2.12556592e+03
3.76023054e+00,1.61198701e+04,2.25810586e+04,1.59480215e+04,2.05657300e+03
3.88259912e+00,1.56123242e+04,2.18697656e+04,1.54230244e+04,2.00215649e+03
4.00811720e+00,1.50342588e+04,2.10597793e+04,1.48361221e+04,1.93672571e+03
4.13686609e+00,1.43083711e+04,2.00428809e+04,1.41119375e+04,1.86526245e+03
4.26892853e+00,1.34997949e+04,1.89103086e+04,1.33139160e+04,1.78770703e+03
4.40439081e+00,1.27618008e+04,1.78768789e+04,1.26006914e+04,1.73031226e+03
4.54333878e+00,1.24045117e+04,1.73769531e+04,1.22765791e+04,1.72969177e+03
4.68586397e+00,1.23759863e+04,1.73375742e+04,1.22800166e+04,1.77314648e+03
4.83205652e+00,1.23404473e+04,1.72884375e+04,1.22828828e+04,1.81839661e+03
4.98201227e+00,1.27638516e+04,1.78823594e+04,1.27505234e+04,1.92910388e+03
5.13582754e+00,1.33363496e+04,1.86849199e+04,1.33564600e+04,2.04412109e+03
5.29360199e+00,1.36307695e+04,1.90978203e+04,1.36796875e+04,2.11508008e+03
5.45543718e+00,1.38908516e+04,1.94627734e+04,1.39779336e+04,2.19493335e+03
5.62143755e+00,1.39725254e+04,1.95781602e+04,1.41165918e+04,2.26207861e+03
5.79171038e+00,1.47908086e+04,2.07253926e+04,1.49854160e+04,2.41583325e+03
5.96636629e+00,1.55005898e+04,2.17198691e+04,1.57136191e+04,2.52922729e+03
6.14551687e+00,1.64390195e+04,2.30354141e+04,1.67049316e+04,2.69502393e+03
6.32927942e+00,1.94749648e+04,2.72894355e+04,1.97822207e+04,3.10731860e+03
6.51777077e+00,2.15748770e+04,3.02290488e+04,2.17724727e+04,3.25779883e+03
6.71111441e+00,2.10344414e+04,2.94701992e+04,2.11485449e+04,3.10369775e+03
6.90943432e+00,2.13231641e+04,2.98730156e+04,2.13438320e+04,3.03449731e+03
7.11285782e+00,2.03745898e+04,2.85420430e+04,2.02723223e+04,2.80145508e+03
7.32151794e+00,1.81673750e+04,2.54482930e+04,1.79710469e+04,2.43365894e+03
7.53554821e+00,1.51331191e+04,2.11970742e+04,1.49234922e+04,2.05397876e+03
7.75508738e+00,1.38588350e+04,1.94130293e+04,1.37043115e+04,1.94942725e+03
7.98027754e+00,1.45192363e+04,2.03377656e+04,1.43445889e+04,2.03908105e+03
8.21126270e+00,1.43884404e+04,2.01548633e+04,1.42391504e+04,2.05958301e+03
8.44819450e+00,1.44252852e+04,2.02072051e+04,1.43122080e+04,2.10317725e+03
8.69122219e+00,1.38299785e+04,1.93733516e+04,1.37296895e+04,2.04163696e+03
8.94050789e+00,1.14892578e+04,1.60953135e+04,1.14576279e+04,1.79263977e+03
9.19620800e+00,9.32739648e+03,1.30689727e+04,9.40861621e+03,1.59890308e+03
9.45849037e+00,8.81474805e+03,1.23535996e+04,9.01425781e+03,1.62724329e+03
9.72752285e+00,9.32458496e+03,1.30693750e+04,9.57993555e+03,1.75177039e+03
1.00034800e+01,1.02850117e+04,1.44161826e+04,1.05985557e+04,1.95686768e+03
1.02865391e+01,1.31976387e+04,1.84977539e+04,1.35851172e+04,2.41930640e+03
1.05768833e+01,1.79834883e+04,2.52040703e+04,1.84728262e+04,3.09969897e+03
1.08747025e+01,2.25609668e+04,3.16144746e+04,2.29542051e+04,3.55711084e+03
1.11801853e+01,2.09488262e+04,2.93533945e+04,2.12297852e+04,3.19612695e+03
1.14935322e+01,1.95477832e+04,2.73895020e+04,1.98232910e+04,2.93072144e+03
1.18149433e+01,1.97952988e+04,2.77340293e+04,2.00420293e+04,2.85471021e+03
1.21446266e+01,2.15767266e+04,3.02297207e+04,2.19035898e+04,3.04406055e+03
1.24827967e+01,2.46841621e+04,3.45811094e+04,2.50128633e+04,3.34225684e+03
1.28296700e+01,1.92665742e+04,2.69934199e+04,1.98044570e+04,2.63327588e+03
1.31854706e+01,1.18865645e+04,1.66640176e+04,1.29151348e+04,1.81327197e+03
1.35504293e+01,1.01688066e+04,1.42701299e+04,1.17267793e+04,1.74399097e+03
1.39247818e+01,1.40788994e+04,1.97562207e+04,1.58829316e+04,2.17543115e+03
1.43087692e+01,1.47048887e+04,2.06352266e+04,1.64847754e+04,2.03631006e+03
1.47026405e+01,1.25593799e+04,1.76320859e+04,1.43518398e+04,1.67509692e+03
1.51066484e+01,1.12315752e+04,1.57733730e+04,1.28860488e+04,1.42071973e+03
1.55210552e+01,1.10595889e+04,1.55268867e+04,1.24865195e+04,1.31087695e+03
1.59461288e+01,1.15376143e+04,1.61967666e+04,1.29387988e+04,1.28487219e+03
1.63821430e+01,1.04710615e+04,1.47054463e+04,1.15529609e+04,9.99262878e+02
1.68293781e+01,9.08186523e+03,1.27476846e+04,9.63931641e+03,7.13238525e+02
1.72881241e+01,9.37541699e+03,1.31427910e+04,9.59785352e+03,6.69387085e+02
1.77586803e+01,9.90972070e+03,1.38807559e+04,1.00084922e+04,6.82458069e+02
1.82413464e+01,1.05765596e+04,1.48132559e+04,1.06415117e+04,7.01363953e+02
1.87364349e+01,1.20814258e+04,1.69197891e+04,1.18276279e+04,7.94183472e+02
1.92442665e+01,1.42986719e+04,2.00209453e+04,1.35463809e+04,1.01703137e+03
1.97651691e+01,1.75166602e+04,2.45235566e+04,1.59604707e+04,1.37308923e+03
2.02994785e+01,1.86495684e+04,2.60915195e+04,1.56644512e+04,1.35352966e+03
2.08475418e+01,1.57268457e+04,2.19673730e+04,1.18712617e+04,9.99206604e+02
2.14097099e+01,1.26698057e+04,1.76705098e+04,9.02225684e+03,7.48112976e+02
2.19863453e+01,9.74447461e+03,1.35746543e+04,6.59551123e+03,5.11251923e+02
2.25778236e+01,7.71380566e+03,1.07385156e+04,5.20865430e+03,3.41417023e+02
2.31845264e+01,6.64656689e+03,9.25249121e+03,4.66027881e+03,3.24720245e+02
2.38068466e+01,5.30443750e+03,7.39188232e+03,4.06943921e+03,3.27923035e+02
2.44451809e+01,3.96846216e+03,5.53443945e+03,3.12101318e+03,2.07276093e+02
2.50999470e+01,2.66650220e+03,3.71607178e+03,1.95438013e+03,7.26959763e+01
2.57715645e+01,1.35904175e+03,1.88900049e+03,8.30063721e+02,1.17056055e+01
2.64604683e+01,4.75102020e+02,6.56514587e+02,1.96778336e+02,2.88737625e-01
2.71671047e+01,2.95083221e+02,4.07456421e+02,1.20144379e+02,3.88180688e-02
2.78919277e+01,2.49542679e+02,3.44766724e+02,9.78289719e+01,3.85582307e-03
2.86354065e+01,1.53297119e+02,2.11374863e+02,5.06042557e+01,8.28848337e-04
2.93980217e+01,7.16063461e+01,9.85277023e+01,2.09480724e+01,3.42109037e-04
3.01802654e+01,2.60259418e+01,3.57067642e+01,7.20852709e+00,6.42345331e-05
3.09826431e+01,8.11999226e+00,1.11017017e+01,2.18368411e+00,6.18695140e-06
3.18056717e+01,2.39210796e+00,3.25893307e+00,5.64824820e-01,2.61602236e-06
3.26498833e+01,4.34362054e-01,5.87095976e-01,6.61721453e-02,7.70699216e-07
3.35158234e+01,5.74605465e-02,7.67109022e-02,4.77802288e-03,2.01657343e-07
3.44040565e+01,9.30910651e-03,1.23958951e-02,6.92422560e-04,5.29935562e-08
3.53151436e+01,1.61771942e-03,2.15364574e-03,9.89661203e-05,1.30760380e-08
3.62496834e+01,2.92510464e-04,3.90108034e-04,1.76611138e-05,3.15147330e-09
3.72082787e+01,4.34088870e-05,5.89272277e-05,5.42635325e-06,6.59401256e-10
3.81915474e+01,1.18962753e-05,1.65207384e-05,1.36239214e-06,1.45305726e-10
3.92001228e+01,2.99913404e-06,4.09755376e-06,1.31494403e-07,1.53973934e-11
4.02346535e+01,2.23287259e-07,3.05803610e-07,1.57203428e-09,4.13854145e-13
4.12958107e+01,2.31926141e-08,3.16577839e-08,3.49329343e-10,7.86308410e-14
4.23842850e+01,9.05238162e-10,1.20410160e-09,3.52986702e-11,7.38343882e-15
4.35007744e+01,6.86273260e-11,8.98133928e-11,3.01224432e-12,4.96946448e-16
4.46459999e+01,5.46468513e-12,6.93679879e-12,2.37677770e-13,3.73030167e-17
4.58207016e+01,3.71589288e-13,4.45863263e-13,1.16633354e-14,2.93485708e-18
4.70256386e+01,4.54151961e-14,5.46958312e-14,1.14170396e-15,4.66383868e-19
4.82615852e+01,3.63749575e-15,4.46425920e-15,1.30112877e-16,6.50010804e-20
4.95293465e+01,2.56318231e-16,3.06995577e-16,9.86534311e-18,5.34427096e-21
5.08297386e+01,1.46732080e-17,1.72980440e-17,5.05551232e-19,2.19437122e-22
5.21635971e+01,7.29675163e-21,1.38254984e-20,8.58504929e-22,1.34584453e-25
5.35317917e+01,2.58560105e-22,2.92123498e-22,2.45536491e-23,7.08898836e-27
5.49351997e+01,1.72303906e-24,2.75933921e-24,8.05479185e-26,1.64648473e-29
5.63747253e+01,5.14784711e-26,6.07937444e-26,1.01274342e-27,2.47601028e-31
5.78513031e+01,1.65381013e-28,2.28444734e-28,7.91109052e-30,5.91755244e-33
5.93278885e+01,1.67402151e-30,1.91231885e-30,5.55734703e-32,1.13282636e-35
6.08044662e+01,2.11244328e-32,2.75774178e-32,1.28741170e-33,1.16544312e-36
6.22810478e+01,2.27591066e-34,2.90910240e-34,2.22893144e-35,2.57418528e-39
6.37576256e+01,4.16819721e-36,6.82089063e-36,6.49937653e-37,1.00893489e-40
6.52341995e+01,1.03861440e-37,1.74398600e-37,2.35151895e-38,0.00000000e+00
6.67107849e+01,3.20897348e-39,5.99475483e-39,8.98232316e-40,0.00000000e+00
6.81873703e+01,8.40779079e-41,1.91977890e-40,2.24207754e-41,0.00000000e+00
6.96639481e+01,0.00000000e+00,4.20389539e-42,0.00000000e+00,0.00000000e+00
7.11405258e+01,0.00000000e+00,0.00000000e+00,0.00000000e+00,0.00000000e+00
7.26171036e+01,0.00000000e+00,0.00000000e+00,0.00000000e+00,0.00000000e+00
7.40936813e+01,0.00000000e+00,0.00000000e+00,0.00000000e+00,0.00000000e+00
7.55702591e+01,0.00000000e+00,0.00000000e+00,0.00000000e+00,0.00000000e+00
7.70468445e+01,0.00000000e+00,0.00000000e+00,0.00000000e+00,0.00000000e+00
7.85234222e+01,0.00000000e+00,0.00000000e+00,0.00000000e+00,0.00000000e+00
8.00000000e+01,0.00000000e+00,0.00000000e+00,0.00000000e+00,0.00000000e+00
