Height (km), 7_8 um ash conc (g/kg), 15_6 um ash conc (g/kg), 125 um ash conc (g/kg), 1 mm ash conc (g/kg)
0.00000000e+00,0.00000000e+00,0.00000000e+00,0.00000000e+00,0.00000000e+00
3.99999991e-02,1.45398633e-04,2.32514401e-04,2.43742950e-02,8.79814446e-01
7.99999982e-02,3.69940710e-04,5.87020011e-04,3.81862186e-02,9.46446776e-01
1.19999997e-01,6.96118455e-04,1.11692958e-03,5.25158234e-02,9.70821440e-01
1.59999996e-01,1.64975342e-03,2.68338807e-03,7.01013580e-02,1.02161694e+00
2.00000003e-01,3.73089220e-03,5.86429192e-03,7.85749108e-02,1.05650914e+00
2.39999995e-01,6.21971441e-03,9.49381292e-03,1.00393288e-01,1.10827601e+00
2.80000001e-01,8.34101066e-03,1.25745460e-02,1.13388434e-01,1.14903128e+00
3.19999993e-01,1.04121026e-02,1.55356005e-02,1.31988168e-01,1.19425094e+00
3.60000014e-01,1.28128137e-02,1.90842040e-02,1.47947803e-01,1.23954129e+00
4.00000006e-01,1.53344693e-02,2.28211693e-02,1.72779039e-01,1.28616548e+00
4.39999998e-01,1.87976807e-02,2.79024094e-02,1.78469658e-01,1.33020294e+00
4.79999989e-01,2.30266415e-02,3.42352092e-02,1.93695337e-01,1.37549150e+00
5.19999981e-01,2.93842461e-02,4.36855555e-02,1.88959792e-01,1.42140245e+00
5.60000002e-01,3.79038341e-02,5.64884692e-02,1.90038577e-01,1.46991563e+00
6.00000024e-01,4.83445823e-02,7.21418709e-02,1.82201952e-01,1.52180028e+00
6.41029537e-01,6.21111952e-02,9.29699242e-02,1.93115413e-01,1.57884276e+00
6.83115125e-01,7.75719061e-02,1.16078295e-01,1.82751060e-01,1.63977337e+00
7.26283848e-01,9.59870517e-02,1.43265978e-01,1.86003894e-01,1.71165216e+00
7.70563781e-01,1.16022065e-01,1.71735898e-01,1.89044073e-01,1.78685892e+00
8.15983355e-01,1.36552721e-01,2.00345844e-01,2.02847347e-01,1.86688280e+00
8.62571895e-01,1.54934868e-01,2.25425094e-01,2.09727734e-01,1.93963230e+00
9.10359621e-01,1.68558836e-01,2.43721813e-01,2.29609251e-01,2.03168344e+00
9.59377348e-01,1.80443197e-01,2.59213924e-01,2.40237296e-01,2.12394762e+00
1.00965667e+00,1.90808609e-01,2.72900403e-01,2.58480549e-01,2.30759645e+00
1.06123006e+00,1.98130831e-01,2.82463253e-01,2.74531454e-01,2.53570509e+00
1.11413085e+00,2.02358961e-01,2.87707120e-01,2.90418744e-01,2.78887582e+00
1.16839325e+00,2.04133227e-01,2.89715350e-01,3.10157061e-01,2.96042776e+00
1.22405231e+00,2.04585090e-01,2.90128469e-01,3.29622865e-01,3.11561608e+00
1.28114390e+00,2.05024838e-01,2.90995538e-01,3.54356706e-01,3.22673917e+00
1.33970511e+00,2.08532810e-01,2.96931326e-01,3.93857181e-01,3.31910586e+00
1.39977336e+00,1.49559248e+04,2.09222988e+04,1.46713398e+04,1.52016479e+03
1.46138775e+00,1.22499316e+04,1.71318105e+04,1.17346934e+04,1.11857715e+03
1.52458799e+00,7.32185547e+03,1.02398711e+04,7.03332812e+03,6.95726807e+02
1.58941495e+00,6.29588086e+03,8.80613672e+03,6.10262793e+03,6.54892517e+02
1.65591037e+00,5.89557715e+03,8.24693555e+03,5.74921094e+03,6.51243469e+02
1.72411728e+00,5.70822266e+03,7.98537354e+03,5.59252344e+03,6.58956665e+02
1.79407966e+00,5.61781152e+03,7.85930078e+03,5.52459570e+03,6.72894531e+02
1.86584306e+00,5.57786133e+03,7.80373682e+03,5.50189697e+03,6.85205261e+02
1.93945324e+00,5.56750146e+03,7.78950098e+03,5.50545703e+03,7.01075562e+02
2.01495814e+00,5.57379297e+03,7.79852051e+03,5.52322949e+03,7.13533691e+02
2.09240627e+00,5.58817480e+03,7.81882471e+03,5.54724072e+03,7.26619751e+02
2.17184782e+00,5.60411816e+03,7.84128564e+03,5.57134229e+03,7.38384399e+02
2.25333428e+00,5.62051758e+03,7.86435547e+03,5.59468359e+03,7.49117920e+02
2.33691788e+00,5.63810742e+03,7.88908398e+03,5.61847656e+03,7.59196899e+02
2.42265272e+00,5.65527539e+03,7.91320996e+03,5.64125488e+03,7.68544556e+02
2.51059437e+00,5.67579590e+03,7.94201270e+03,5.66670605e+03,7.77487183e+02
2.60079956e+00,5.69858838e+03,7.97398438e+03,5.69386719e+03,7.86260986e+02
2.69332647e+00,5.72698340e+03,8.01379004e+03,5.72628027e+03,7.95458374e+02
2.78823495e+00,5.76059180e+03,8.06088232e+03,5.76355615e+03,8.04916321e+02
2.88558602e+00,5.79572070e+03,8.11009082e+03,5.80187842e+03,8.14016724e+02
2.98544264e+00,5.82637305e+03,8.15302490e+03,5.83525732e+03,8.22144409e+02
3.08786964e+00,5.85062646e+03,8.18699756e+03,5.86190674e+03,8.28931580e+02
3.19293284e+00,5.86659277e+03,8.20937598e+03,5.88010742e+03,8.34211792e+02
3.30070019e+00,5.88137109e+03,8.23009277e+03,5.89713330e+03,8.39490967e+02
3.41124129e+00,5.89707422e+03,8.25210059e+03,5.91491309e+03,8.44676270e+02
3.52462745e+00,5.91691797e+03,8.27990234e+03,5.93678711e+03,8.50274475e+02
3.64093208e+00,5.94665039e+03,8.32154102e+03,5.96849902e+03,8.57250122e+02
3.76023054e+00,5.98314844e+03,8.37263574e+03,6.00663965e+03,8.64801697e+02
3.88259912e+00,6.02465332e+03,8.43073047e+03,6.04956787e+03,8.72903931e+02
4.00811720e+00,6.06763672e+03,8.49088770e+03,6.09371143e+03,8.80892700e+02
4.13686609e+00,6.11116748e+03,8.55180469e+03,6.13808105e+03,8.88566589e+02
4.26892853e+00,6.14880762e+03,8.60446875e+03,6.17619824e+03,8.95160889e+02
4.40439081e+00,6.17398535e+03,8.63969238e+03,6.20170996e+03,8.99839722e+02
4.54333878e+00,6.18420508e+03,8.65398633e+03,6.21218652e+03,9.02337158e+02
4.68586397e+00,6.18599268e+03,8.65648535e+03,6.21435303e+03,9.03728149e+02
4.83205652e+00,6.18559473e+03,8.65593262e+03,6.21453711e+03,9.04869812e+02
4.98201227e+00,6.19586914e+03,8.67031836e+03,6.22557666e+03,9.07632629e+02
5.13582754e+00,6.22100586e+03,8.70550000e+03,6.25155371e+03,9.12363892e+02
5.29360199e+00,6.26474023e+03,8.76669727e+03,6.29582227e+03,9.19548584e+02
5.45543718e+00,6.31364746e+03,8.83511914e+03,6.34496094e+03,9.26999023e+02
5.62143755e+00,6.36756543e+03,8.91053516e+03,6.39850244e+03,9.34814514e+02
5.79171038e+00,6.40119141e+03,8.95755469e+03,6.43147510e+03,9.39699463e+02
5.96636629e+00,6.41927441e+03,8.98280762e+03,6.44836475e+03,9.41751831e+02
6.14551687e+00,6.39508496e+03,8.94891309e+03,6.42286523e+03,9.37960449e+02
6.32927942e+00,6.33880518e+03,8.87011914e+03,6.36533643e+03,9.29877441e+02
6.51777077e+00,6.26917676e+03,8.77267480e+03,6.29532666e+03,9.20839844e+02
6.71111441e+00,6.21451855e+03,8.69617676e+03,6.24023779e+03,9.14232483e+02
6.90943432e+00,6.19544336e+03,8.66949023e+03,6.22191016e+03,9.13663269e+02
7.11285782e+00,6.29017480e+03,8.80200586e+03,6.31597559e+03,9.28282104e+02
7.32151794e+00,6.32703418e+03,8.85343457e+03,6.34836963e+03,9.32288269e+02
7.53554821e+00,6.30079980e+03,8.81672266e+03,6.32281592e+03,9.33447021e+02
7.75508738e+00,6.25751270e+03,8.75604297e+03,6.27536133e+03,9.26860291e+02
7.98027754e+00,5.65041064e+03,7.90648389e+03,5.66518701e+03,8.46224792e+02
8.21126270e+00,5.51427393e+03,7.71638330e+03,5.54452637e+03,8.46929077e+02
8.44819450e+00,6.24627441e+03,8.74031641e+03,6.26726025e+03,9.44956421e+02
8.69122219e+00,6.12644922e+03,8.57208789e+03,6.12914941e+03,9.22269531e+02
8.94050789e+00,6.44215723e+03,9.01412012e+03,6.45688184e+03,9.85726318e+02
9.19620800e+00,6.92034033e+03,9.68306250e+03,6.92804785e+03,1.04966455e+03
9.45849037e+00,5.46039600e+03,7.64012109e+03,5.45930273e+03,8.40061523e+02
9.72752285e+00,3.98694849e+03,5.57933252e+03,4.01923657e+03,6.70224060e+02
1.00034800e+01,4.58849170e+03,6.42159375e+03,4.64572852e+03,7.75024475e+02
1.02865391e+01,5.51950293e+03,7.72302539e+03,5.53559863e+03,8.70488708e+02
1.05768833e+01,5.43656104e+03,7.60582666e+03,5.41839453e+03,8.45087585e+02
1.08747025e+01,6.11470996e+03,8.55543359e+03,6.13000879e+03,9.74711975e+02
1.11801853e+01,7.29247656e+03,1.02027881e+04,7.28747412e+03,1.11430664e+03
1.14935322e+01,5.26979346e+03,7.37149854e+03,5.23563232e+03,8.03561401e+02
1.18149433e+01,2.51630298e+03,3.52078271e+03,2.58187573e+03,4.90183136e+02
1.21446266e+01,1.65922253e+03,2.32366650e+03,1.84170630e+03,4.30817657e+02
1.24827967e+01,1.72067285e+03,2.41128394e+03,2.02997705e+03,4.63313507e+02
1.28296700e+01,2.04493933e+03,2.86773999e+03,2.57517236e+03,5.06434814e+02
1.31854706e+01,2.55672241e+03,3.58888770e+03,3.45695239e+03,5.47129211e+02
1.35504293e+01,3.30002490e+03,4.63654297e+03,4.72026514e+03,5.86428772e+02
1.39247818e+01,4.08724048e+03,5.74197705e+03,6.00642139e+03,6.06159302e+02
1.43087692e+01,4.40518994e+03,6.18951514e+03,6.95294629e+03,5.95085327e+02
1.47026405e+01,4.51109326e+03,6.34345605e+03,7.86297705e+03,5.72874939e+02
1.51066484e+01,4.52516064e+03,6.37113867e+03,8.39243359e+03,5.44926270e+02
1.55210552e+01,5.27410986e+03,7.43905615e+03,8.78222461e+03,5.48943726e+02
1.59461288e+01,6.99617285e+03,9.86009180e+03,9.50480078e+03,5.96741821e+02
1.63821430e+01,8.52059766e+03,1.20074199e+04,1.03926289e+04,6.07296936e+02
1.68293781e+01,9.35272070e+03,1.32087656e+04,9.72895215e+03,5.02505524e+02
1.72881241e+01,1.15144385e+04,1.61794414e+04,8.19973730e+03,3.98159821e+02
1.77586803e+01,1.20845557e+04,1.68748535e+04,6.98154053e+03,3.43543457e+02
1.82413464e+01,1.11008350e+04,1.54211133e+04,5.52442969e+03,3.01629150e+02
1.87364349e+01,1.01638535e+04,1.40517402e+04,4.62195605e+03,2.60804138e+02
1.92442665e+01,8.30997949e+03,1.14352510e+04,4.01113867e+03,2.52092285e+02
1.97651691e+01,6.44157617e+03,8.88881250e+03,3.88806934e+03,2.44297821e+02
2.02994785e+01,4.78073242e+03,6.60736475e+03,3.06719531e+03,1.94867294e+02
2.08475418e+01,3.24765674e+03,4.49846191e+03,2.24276416e+03,1.34572800e+02
2.14097099e+01,2.32212354e+03,3.22284814e+03,1.65849170e+03,9.27645187e+01
2.19863453e+01,1.83378821e+03,2.54960132e+03,1.36673181e+03,6.86354065e+01
2.25778236e+01,1.46583411e+03,2.03933984e+03,1.08271802e+03,3.85979462e+01
2.31845264e+01,8.74044556e+02,1.21579834e+03,5.75225037e+02,7.69278002e+00
2.38068466e+01,4.14216797e+02,5.75170776e+02,1.92504791e+02,2.93160915e-01
2.44451809e+01,2.97639862e+02,4.10553864e+02,7.06567383e+01,2.64754500e-02
2.50999470e+01,2.11280991e+02,2.89575745e+02,3.64616699e+01,3.32974154e-03
2.57715645e+01,1.04201294e+02,1.42212265e+02,1.65194969e+01,1.50459644e-03
2.64604683e+01,4.78290215e+01,6.52243881e+01,8.88647079e+00,1.59543590e-04
2.71671047e+01,2.14748955e+01,2.92352600e+01,3.51122737e+00,6.93571419e-05
2.78919277e+01,5.66921997e+00,7.65989304e+00,4.89043355e-01,1.42719236e-05
2.86354065e+01,4.27354872e-01,5.64616680e-01,6.77846419e-03,2.51810138e-06
2.93980217e+01,1.17927685e-01,1.55785009e-01,1.88594719e-03,5.77801870e-07
3.01802654e+01,1.32301562e-02,1.70469955e-02,1.50875334e-04,1.42703485e-07
3.09826431e+01,2.41506356e-03,3.12138372e-03,3.93984701e-05,4.15850465e-08
3.18056717e+01,4.21582168e-04,5.43227769e-04,5.17409308e-06,7.90774113e-09
3.26498833e+01,3.68215660e-05,4.68899707e-05,3.70739997e-07,8.27938218e-10
3.35158234e+01,7.22473806e-06,9.11276220e-06,5.18543679e-08,1.05975527e-10
3.44040565e+01,1.39162452e-07,1.79248403e-07,1.70241587e-09,1.88890960e-12
3.53151436e+01,5.24199661e-09,6.97121250e-09,6.68166494e-11,7.59031848e-14
3.62496834e+01,2.59067434e-09,3.29060046e-09,2.54944867e-11,2.89919252e-14
3.72082787e+01,1.04888546e-11,1.36031039e-11,2.02363354e-13,1.26492459e-16
3.81915474e+01,2.93172192e-12,3.76436512e-12,3.77910526e-14,1.72609422e-18
3.92001228e+01,1.29342524e-14,1.66147207e-14,3.35011007e-16,1.40576688e-18
4.02346535e+01,2.15815482e-15,2.76007465e-15,2.64591441e-18,2.44491829e-21
4.12958107e+01,2.65999675e-18,3.04721426e-18,2.09616025e-18,8.02794688e-22
4.23842850e+01,2.40832167e-18,2.57783021e-18,1.11766625e-20,6.24114405e-24
4.35007744e+01,4.91015316e-20,7.33009266e-20,8.14295901e-22,3.46957025e-25
4.46459999e+01,6.87584140e-22,7.11270011e-22,1.29072475e-23,2.60470604e-27
4.58207016e+01,2.30738722e-23,3.69424635e-23,2.41835467e-25,1.00130952e-28
4.70256386e+01,1.40575432e-25,1.48716699e-25,3.97681268e-27,8.44467995e-31
4.82615852e+01,5.59057211e-27,1.05176236e-26,5.08931803e-29,3.16291205e-32
4.95293465e+01,2.46695707e-29,2.48421084e-29,7.19341511e-31,2.16352444e-34
5.08297386e+01,8.55666130e-31,1.46839200e-30,1.07988978e-32,7.04084095e-36
5.21635971e+01,6.35130618e-33,7.32443918e-33,4.03282311e-34,1.63844020e-37
5.35317917e+01,1.41413532e-34,2.28979159e-34,4.37962692e-36,1.90016072e-39
5.49351997e+01,3.70031473e-36,4.86246639e-36,2.30820493e-37,6.02558340e-41
5.63747253e+01,6.22624934e-38,7.61311443e-38,1.64932829e-39,0.00000000e+00
5.78513031e+01,1.74041269e-39,2.86845796e-39,2.38220739e-41,0.00000000e+00
5.93278885e+01,2.52233724e-41,3.22298647e-41,0.00000000e+00,0.00000000e+00
6.08044662e+01,0.00000000e+00,0.00000000e+00,0.00000000e+00,0.00000000e+00
6.22810478e+01,0.00000000e+00,0.00000000e+00,0.00000000e+00,0.00000000e+00
6.37576256e+01,0.00000000e+00,0.00000000e+00,0.00000000e+00,0.00000000e+00
6.52341995e+01,0.00000000e+00,0.00000000e+00,0.00000000e+00,0.00000000e+00
6.67107849e+01,0.00000000e+00,0.00000000e+00,0.00000000e+00,0.00000000e+00
6.81873703e+01,0.00000000e+00,0.00000000e+00,0.00000000e+00,0.00000000e+00
6.96639481e+01,0.00000000e+00,0.00000000e+00,0.00000000e+00,0.00000000e+00
7.11405258e+01,0.00000000e+00,0.00000000e+00,0.00000000e+00,0.00000000e+00
7.26171036e+01,0.00000000e+00,0.00000000e+00,0.00000000e+00,0.00000000e+00
7.40936813e+01,0.00000000e+00,0.00000000e+00,0.00000000e+00,0.00000000e+00
7.55702591e+01,0.00000000e+00,0.00000000e+00,0.00000000e+00,0.00000000e+00
7.70468445e+01,0.00000000e+00,0.00000000e+00,0.00000000e+00,0.00000000e+00
7.85234222e+01,0.00000000e+00,0.00000000e+00,0.00000000e+00,0.00000000e+00
8.00000000e+01,0.00000000e+00,0.00000000e+00,0.00000000e+00,0.00000000e+00
