Height (km), 7_8 um ash conc (g/kg), 15_6 um ash conc (g/kg), 125 um ash conc (g/kg), 1 mm ash conc (g/kg)
0.00000000e+00,0.00000000e+00,0.00000000e+00,0.00000000e+00,0.00000000e+00
3.99999991e-02,9.18168589e-05,3.00276675e-04,6.81064487e-01,1.93498917e+01
7.99999982e-02,2.84237060e-04,7.96761480e-04,7.44138718e-01,1.97372913e+01
1.19999997e-01,5.33728162e-04,1.37740781e-03,7.56835163e-01,1.98311939e+01
1.59999996e-01,1.08979130e-03,2.79933214e-03,7.99397767e-01,2.01688709e+01
2.00000003e-01,2.74507841e-03,6.42609689e-03,8.30710292e-01,2.03202953e+01
2.39999995e-01,5.04138973e-03,1.06743984e-02,8.67832661e-01,2.06101437e+01
2.80000001e-01,7.45480321e-03,1.49602778e-02,9.06208992e-01,2.07479935e+01
3.19999993e-01,1.01488177e-02,1.93892699e-02,9.43750739e-01,2.09294891e+01
3.60000014e-01,1.36974975e-02,2.51558628e-02,9.81342793e-01,2.10610600e+01
4.00000006e-01,1.79909170e-02,3.17874439e-02,1.01565921e+00,2.12945061e+01
4.39999998e-01,2.28004064e-02,3.91736329e-02,1.04952657e+00,2.14423637e+01
4.79999989e-01,2.83652954e-02,4.81630042e-02,1.08315361e+00,2.16890488e+01
5.19999981e-01,3.52389514e-02,5.93814030e-02,1.11642563e+00,2.18627090e+01
5.60000002e-01,4.31216508e-02,7.25023150e-02,1.15670896e+00,2.20878220e+01
6.00000024e-01,5.36197126e-02,8.93215314e-02,1.19857323e+00,2.23074265e+01
6.41029537e-01,6.62221462e-02,1.08828053e-01,1.25848627e+00,2.25187111e+01
6.83115125e-01,8.05382729e-02,1.29300565e-01,1.29969609e+00,2.27366390e+01
7.26283848e-01,9.59786028e-02,1.49265170e-01,1.34589684e+00,2.29821663e+01
7.70563781e-01,1.11453563e-01,1.66414618e-01,1.39511776e+00,2.31767616e+01
8.15983355e-01,1.23387672e-01,1.77266911e-01,1.48040617e+00,2.35074711e+01
8.62571895e-01,1.28008187e-01,1.79629624e-01,1.54516518e+00,2.36592846e+01
9.10359621e-01,1.28084511e-01,1.80058539e-01,1.67404950e+00,2.42239208e+01
9.59377348e-01,1.27598748e-01,1.80134088e-01,1.75801635e+00,2.44518719e+01
1.00965667e+00,1.26871526e-01,1.80844709e-01,1.85077071e+00,2.51419353e+01
1.06123006e+00,1.25606179e-01,1.80699125e-01,2.02196932e+00,2.58072472e+01
1.11413085e+00,1.24920696e-01,1.82786196e-01,2.19778442e+00,2.67776985e+01
1.16839325e+00,1.27199531e-01,1.89629525e-01,2.28561783e+00,2.71797466e+01
1.22405231e+00,1.33137822e-01,2.02395216e-01,2.36282396e+00,2.79181118e+01
1.28114390e+00,1.43608645e-01,2.19736427e-01,2.58994865e+00,2.93110943e+01
1.33970511e+00,1.56807825e-01,2.39980996e-01,2.73090744e+00,3.02785149e+01
1.39977336e+00,2.12776777e+04,2.97711309e+04,1.86528320e+04,5.39585693e+02
1.46138775e+00,2.68802363e+04,3.75369062e+04,1.98203164e+04,7.86532349e+02
1.52458799e+00,1.59840762e+04,2.23120312e+04,1.21159824e+04,6.86021484e+02
1.58941495e+00,1.48552793e+04,2.07588008e+04,1.21296992e+04,9.10552002e+02
1.65591037e+00,1.46058135e+04,2.04205859e+04,1.23530674e+04,1.01944397e+03
1.72411728e+00,1.46047363e+04,2.04256406e+04,1.26238594e+04,1.11061841e+03
1.79407966e+00,1.47064785e+04,2.05724824e+04,1.29024307e+04,1.18126770e+03
1.86584306e+00,1.48692559e+04,2.08036250e+04,1.31892109e+04,1.24879736e+03
1.93945324e+00,1.50997832e+04,2.11288047e+04,1.35033252e+04,1.30494653e+03
2.01495814e+00,1.53591914e+04,2.14936445e+04,1.38115527e+04,1.35887793e+03
2.09240627e+00,1.55526719e+04,2.17653867e+04,1.40229873e+04,1.38702563e+03
2.17184782e+00,1.55851309e+04,2.18110234e+04,1.40558223e+04,1.39790063e+03
2.25333428e+00,1.54149941e+04,2.15727832e+04,1.38909688e+04,1.38141296e+03
2.33691788e+00,1.50845703e+04,2.11101680e+04,1.35750742e+04,1.35479517e+03
2.42265272e+00,1.46447295e+04,2.04945195e+04,1.31635488e+04,1.31917334e+03
2.51059437e+00,1.42563672e+04,1.99516914e+04,1.28376113e+04,1.31049707e+03
2.60079956e+00,1.41473145e+04,1.98006074e+04,1.28035371e+04,1.33422241e+03
2.69332647e+00,1.43001240e+04,2.00160586e+04,1.30120439e+04,1.38799365e+03
2.78823495e+00,1.45963428e+04,2.04323906e+04,1.33687188e+04,1.45614429e+03
2.88558602e+00,1.50725137e+04,2.11005625e+04,1.38914297e+04,1.54277808e+03
2.98544264e+00,1.55299316e+04,2.17417285e+04,1.43663438e+04,1.61162622e+03
3.08786964e+00,1.58640996e+04,2.22105156e+04,1.47400254e+04,1.67504675e+03
3.19293284e+00,1.62367012e+04,2.27329121e+04,1.51343633e+04,1.72445117e+03
3.30070019e+00,1.64067969e+04,2.29709922e+04,1.52986436e+04,1.74175928e+03
3.41124129e+00,1.64531348e+04,2.30360859e+04,1.53530605e+04,1.74107947e+03
3.52462745e+00,1.67191152e+04,2.34083340e+04,1.55889004e+04,1.75399121e+03
3.64093208e+00,1.69619121e+04,2.37480254e+04,1.57993447e+04,1.76672974e+03
3.76023054e+00,1.73491680e+04,2.42900391e+04,1.61436631e+04,1.78862207e+03
3.88259912e+00,1.78125938e+04,2.49376914e+04,1.65132559e+04,1.80591968e+03
4.00811720e+00,1.79483926e+04,2.51259102e+04,1.65424258e+04,1.77493311e+03
4.13686609e+00,1.77079629e+04,2.47869141e+04,1.61989434e+04,1.71025000e+03
4.26892853e+00,1.71815078e+04,2.40480684e+04,1.56202891e+04,1.62815967e+03
4.40439081e+00,1.65035234e+04,2.30980410e+04,1.49361621e+04,1.54994580e+03
4.54333878e+00,1.56208164e+04,2.18618281e+04,1.40827422e+04,1.45887549e+03
4.68586397e+00,1.48932461e+04,2.08438867e+04,1.34274482e+04,1.40643188e+03
4.83205652e+00,1.47397236e+04,2.06300078e+04,1.33239746e+04,1.41348804e+03
4.98201227e+00,1.48860957e+04,2.08357324e+04,1.34979268e+04,1.45215771e+03
5.13582754e+00,1.53934961e+04,2.15475664e+04,1.40446650e+04,1.54058350e+03
5.29360199e+00,1.62393848e+04,2.27321836e+04,1.48596582e+04,1.64179980e+03
5.45543718e+00,1.64310352e+04,2.30000078e+04,1.50423281e+04,1.67109082e+03
5.62143755e+00,1.61799766e+04,2.26490781e+04,1.48562744e+04,1.67161768e+03
5.79171038e+00,1.57687178e+04,2.20745508e+04,1.45447646e+04,1.66537524e+03
5.96636629e+00,1.52259512e+04,2.13184766e+04,1.41954180e+04,1.65775500e+03
6.14551687e+00,1.51855938e+04,2.12626719e+04,1.41745967e+04,1.65080542e+03
6.32927942e+00,1.55018066e+04,2.17079531e+04,1.45951973e+04,1.72792285e+03
6.51777077e+00,1.76128320e+04,2.46668574e+04,1.66972695e+04,1.96947058e+03
6.71111441e+00,2.10641445e+04,2.94960801e+04,1.97697266e+04,2.23073145e+03
6.90943432e+00,2.19789805e+04,3.07678281e+04,2.02498672e+04,2.18711157e+03
7.11285782e+00,2.08051172e+04,2.91205039e+04,1.90275664e+04,2.03218384e+03
7.32151794e+00,2.10332500e+04,2.94339238e+04,1.89763203e+04,1.96754590e+03
7.53554821e+00,1.92682910e+04,2.69569121e+04,1.70883652e+04,1.71763672e+03
7.75508738e+00,1.50685156e+04,2.10768633e+04,1.32096152e+04,1.33404260e+03
7.98027754e+00,1.08011357e+04,1.51092500e+04,9.55594141e+03,1.03391638e+03
8.21126270e+00,9.53491016e+03,1.33431709e+04,8.64575098e+03,1.01156934e+03
8.44819450e+00,9.71320898e+03,1.35965781e+04,8.96047070e+03,1.07548669e+03
8.69122219e+00,9.66078711e+03,1.35270566e+04,9.08480566e+03,1.12009680e+03
8.94050789e+00,1.08853193e+04,1.52418115e+04,1.02923994e+04,1.25594714e+03
9.19620800e+00,1.28293359e+04,1.79615605e+04,1.20971943e+04,1.45417712e+03
9.45849037e+00,1.37762910e+04,1.92863945e+04,1.30439297e+04,1.57257983e+03
9.72752285e+00,1.55219893e+04,2.17301641e+04,1.47893018e+04,1.75308240e+03
1.00034800e+01,1.80464414e+04,2.52605273e+04,1.70956504e+04,1.93141675e+03
1.02865391e+01,1.91021055e+04,2.67432246e+04,1.84188320e+04,2.07846655e+03
1.05768833e+01,2.21279707e+04,3.09840742e+04,2.17019941e+04,2.39695020e+03
1.08747025e+01,2.43612109e+04,3.40986289e+04,2.38676934e+04,2.42911328e+03
1.11801853e+01,1.90531016e+04,2.66550078e+04,1.94442422e+04,1.75830469e+03
1.14935322e+01,1.17824844e+04,1.64760742e+04,1.40718555e+04,1.09613367e+03
1.18149433e+01,8.23855078e+03,1.15165791e+04,1.23135000e+04,8.58969177e+02
1.21446266e+01,7.68786963e+03,1.07517812e+04,1.31205566e+04,9.30608093e+02
1.24827967e+01,8.29925977e+03,1.16170146e+04,1.47191230e+04,1.05414026e+03
1.28296700e+01,8.36170898e+03,1.17097158e+04,1.55215059e+04,1.03941052e+03
1.31854706e+01,7.48060205e+03,1.04862246e+04,1.55175039e+04,9.69689087e+02
1.35504293e+01,7.24626611e+03,1.01758799e+04,1.60776641e+04,9.99723328e+02
1.39247818e+01,7.95606055e+03,1.11884854e+04,1.70872461e+04,1.05936084e+03
1.43087692e+01,7.52748145e+03,1.06191367e+04,1.69682949e+04,9.86376587e+02
1.47026405e+01,6.60140283e+03,9.38460547e+03,1.64327480e+04,9.02271912e+02
1.51066484e+01,8.44495898e+03,1.20668223e+04,1.75593750e+04,9.64268860e+02
1.55210552e+01,1.30804102e+04,1.86604180e+04,1.98648809e+04,1.12124756e+03
1.59461288e+01,1.66882109e+04,2.38529805e+04,2.09423555e+04,1.24712634e+03
1.63821430e+01,2.02560117e+04,2.90487578e+04,2.12653320e+04,1.27341187e+03
1.68293781e+01,2.35572734e+04,3.37386641e+04,2.08223145e+04,1.14153687e+03
1.72881241e+01,2.56440156e+04,3.66977188e+04,1.95726367e+04,9.96161011e+02
1.77586803e+01,2.88264727e+04,4.11734727e+04,1.75794824e+04,9.15806641e+02
1.82413464e+01,3.30167539e+04,4.67228789e+04,1.66987031e+04,8.81606201e+02
1.87364349e+01,3.67176875e+04,5.14322695e+04,1.66611348e+04,8.89636841e+02
1.92442665e+01,3.74932109e+04,5.19147812e+04,1.72713984e+04,9.02755310e+02
1.97651691e+01,3.66269648e+04,5.03950859e+04,1.87864922e+04,8.89091431e+02
2.02994785e+01,3.59025000e+04,4.93091797e+04,1.92838926e+04,9.26020447e+02
2.08475418e+01,3.30482031e+04,4.53928984e+04,1.66988691e+04,8.98324707e+02
2.14097099e+01,2.89468086e+04,3.98030781e+04,1.70752520e+04,6.64148682e+02
2.19863453e+01,2.79614727e+04,3.86342188e+04,1.59744375e+04,4.16215698e+02
2.25778236e+01,2.61047969e+04,3.60031719e+04,9.61079004e+03,3.87843658e+02
2.31845264e+01,1.53903223e+04,2.10685195e+04,7.06481689e+03,3.05878235e+02
2.38068466e+01,1.08983926e+04,1.49888506e+04,5.86656787e+03,1.83454559e+02
2.44451809e+01,7.75293311e+03,1.06893086e+04,3.89058643e+03,9.24524612e+01
2.50999470e+01,4.79157910e+03,6.59031348e+03,1.69177771e+03,1.47529659e+01
2.57715645e+01,2.73607471e+03,3.72445215e+03,4.26101776e+02,6.76400661e-01
2.64604683e+01,1.54797607e+03,2.09044775e+03,9.58847885e+01,7.14815501e-03
2.71671047e+01,1.01733643e+03,1.36296240e+03,5.60361710e+01,2.41571781e-03
2.78919277e+01,1.18519373e+03,1.59646729e+03,5.54609795e+01,1.39944561e-04
2.86354065e+01,1.24345117e+03,1.65934973e+03,1.56319523e+01,5.20301284e-04
2.93980217e+01,4.47861511e+02,5.82894897e+02,1.96116364e+00,2.71013123e-05
3.01802654e+01,1.66958847e+02,2.17988434e+02,9.67217326e-01,9.34783839e-06
3.09826431e+01,6.52456665e+01,8.39664536e+01,1.07759982e-01,3.44593400e-06
3.18056717e+01,1.92824860e+01,2.42353172e+01,2.84748455e-03,8.94403570e-07
3.26498833e+01,2.91775584e+00,3.45202827e+00,5.84695008e-05,1.92883476e-07
3.35158234e+01,5.85323930e-01,6.84203088e-01,9.15901619e-05,5.29886108e-08
3.44040565e+01,1.36430413e-01,1.57559559e-01,1.65480287e-05,2.44284433e-08
3.53151436e+01,7.09829107e-02,8.21422338e-02,6.46997887e-06,1.18499575e-08
3.62496834e+01,3.20786349e-02,3.71224880e-02,4.54969449e-06,4.95984898e-09
3.72082787e+01,1.58574004e-02,1.82700213e-02,3.88148237e-06,2.23888064e-09
3.81915474e+01,5.87840332e-03,6.63195038e-03,2.58426462e-06,8.15629064e-10
3.92001228e+01,1.80533819e-03,1.99240376e-03,1.28807289e-06,2.60591965e-10
4.02346535e+01,3.42338055e-04,3.67183529e-04,4.15126237e-07,5.00396807e-11
4.12958107e+01,1.94647910e-05,1.97404697e-05,9.47177483e-08,3.10048515e-12
4.23842850e+01,5.03822321e-07,5.22942685e-07,9.51195833e-09,9.29290282e-14
4.35007744e+01,5.45637988e-08,6.40511502e-08,6.36775133e-10,1.31580910e-14
4.46459999e+01,1.25572743e-08,1.37494602e-08,2.07051390e-10,2.09209748e-15
4.58207016e+01,2.93468194e-10,3.52090468e-10,1.16143015e-11,2.20409107e-17
4.70256386e+01,2.48842353e-11,2.80828034e-11,2.49874232e-13,3.74281856e-18
4.82615852e+01,9.24060850e-13,1.06685234e-12,5.23824758e-14,2.01795596e-19
4.95293465e+01,3.10732207e-14,3.53093409e-14,5.87945209e-16,6.62343631e-21
5.08297386e+01,7.45685773e-16,9.02693388e-16,4.55166472e-18,1.30285086e-22
5.21635971e+01,2.76818267e-18,2.72996361e-18,2.85575545e-18,3.23509727e-24
5.35317917e+01,4.52751311e-18,4.47494620e-18,4.44364979e-20,8.67030796e-26
5.49351997e+01,6.88122440e-20,1.21898221e-19,5.98501726e-22,3.13751167e-27
5.63747253e+01,9.05894037e-22,8.97457239e-22,1.72744635e-23,9.01960539e-29
5.78513031e+01,4.34086806e-23,6.12386599e-23,3.14324635e-25,3.54921542e-30
5.93278885e+01,3.75912485e-25,3.34608147e-25,1.69283834e-26,1.00727794e-31
6.08044662e+01,2.96967643e-26,3.37241735e-26,3.28513815e-28,3.65608424e-33
6.22810478e+01,1.75259854e-28,1.42607132e-28,9.75281219e-30,6.44706305e-35
6.37576256e+01,1.78080616e-29,2.06456891e-29,3.09764720e-31,2.80826418e-36
6.52341995e+01,1.06834675e-31,1.16019682e-31,3.48297066e-33,2.89059847e-38
6.67107849e+01,1.40643300e-32,1.58230841e-32,3.31075619e-34,2.40883206e-39
6.81873703e+01,2.35355803e-34,2.48967224e-34,6.42722917e-36,1.68155816e-41
6.96639481e+01,1.45236603e-35,1.66170490e-35,3.35312517e-37,0.00000000e+00
7.11405258e+01,3.07283723e-37,3.51857659e-37,7.43528965e-39,0.00000000e+00
7.26171036e+01,9.14347248e-39,1.06596774e-38,1.97583083e-40,0.00000000e+00
7.40936813e+01,1.26116862e-40,1.34524653e-40,0.00000000e+00,0.00000000e+00
7.55702591e+01,0.00000000e+00,0.00000000e+00,0.00000000e+00,0.00000000e+00
7.70468445e+01,0.00000000e+00,0.00000000e+00,0.00000000e+00,0.00000000e+00
7.85234222e+01,0.00000000e+00,0.00000000e+00,0.00000000e+00,0.00000000e+00
8.00000000e+01,0.00000000e+00,0.00000000e+00,0.00000000e+00,0.00000000e+00
