Height (km), 7_8 um ash conc (g/kg), 15_6 um ash conc (g/kg), 125 um ash conc (g/kg), 1 mm ash conc (g/kg)
0.00000000e+00,0.00000000e+00,0.00000000e+00,0.00000000e+00,0.00000000e+00
3.99999991e-02,4.77677968e-05,8.07684410e-05,1.09665301e-02,5.21373034e-01
7.99999982e-02,1.52870372e-04,2.50251265e-04,1.35893822e-02,5.53189278e-01
1.19999997e-01,2.70680204e-04,4.36505361e-04,1.62916332e-02,5.64797878e-01
1.59999996e-01,4.49452724e-04,7.26725091e-04,1.85425002e-02,5.87517560e-01
2.00000003e-01,7.84894044e-04,1.27434253e-03,2.03136597e-02,5.99540055e-01
2.39999995e-01,1.46155013e-03,2.31333729e-03,2.41053030e-02,6.19690955e-01
2.80000001e-01,2.09512142e-03,3.26497643e-03,2.71279253e-02,6.35300934e-01
3.19999993e-01,2.91948183e-03,4.50283429e-03,3.06072347e-02,6.52765751e-01
3.60000014e-01,4.25363891e-03,6.51431642e-03,3.49591635e-02,6.70250535e-01
4.00000006e-01,6.54547196e-03,9.90201253e-03,3.98520529e-02,6.89204454e-01
4.39999998e-01,9.25958995e-03,1.38492808e-02,4.46820892e-02,7.07579017e-01
4.79999989e-01,1.26058497e-02,1.86750703e-02,4.99916188e-02,7.27242291e-01
5.19999981e-01,1.63050052e-02,2.39408370e-02,5.46196513e-02,7.48672187e-01
5.60000002e-01,1.95250139e-02,2.84873806e-02,5.90651706e-02,7.71738589e-01
6.00000024e-01,2.23950595e-02,3.25278789e-02,6.11885153e-02,7.96021938e-01
6.41029537e-01,2.51489915e-02,3.64519060e-02,6.45890534e-02,8.24831009e-01
6.83115125e-01,2.84662638e-02,4.12296280e-02,6.58690780e-02,8.53296340e-01
7.26283848e-01,3.25166881e-02,4.70698625e-02,6.88538253e-02,8.88088107e-01
7.70563781e-01,3.66524048e-02,5.29582463e-02,7.21106380e-02,9.31289792e-01
8.15983355e-01,4.04156223e-02,5.82124740e-02,7.72017464e-02,9.99174654e-01
8.62571895e-01,4.33042906e-02,6.21198043e-02,7.95219913e-02,1.04262519e+00
9.10359621e-01,4.53865528e-02,6.48518354e-02,8.28181654e-02,1.13221574e+00
9.59377348e-01,4.69157062e-02,6.68515712e-02,8.53337795e-02,1.19930303e+00
1.00965667e+00,4.81026992e-02,6.84595108e-02,8.90941471e-02,1.27563798e+00
1.06123006e+00,4.93502393e-02,7.02706054e-02,9.57504660e-02,1.34154713e+00
1.11413085e+00,5.11372536e-02,7.29641393e-02,1.01235032e-01,1.40679371e+00
1.16839325e+00,5.41903004e-02,7.74960965e-02,1.11366533e-01,1.45413983e+00
1.22405231e+00,5.84625714e-02,8.37489963e-02,1.24139443e-01,1.52122808e+00
1.28114390e+00,6.34981096e-02,9.10203010e-02,1.36024207e-01,1.57495070e+00
1.33970511e+00,6.99675083e-02,1.00357071e-01,1.52224839e-01,1.63919759e+00
1.39977336e+00,1.99763008e+04,2.79811523e+04,1.97044336e+04,1.55940381e+03
1.46138775e+00,2.21484668e+04,3.10073828e+04,2.08110938e+04,1.35646460e+03
1.52458799e+00,1.22206914e+04,1.71065352e+04,1.14434268e+04,8.04208740e+02
1.58941495e+00,1.08240898e+04,1.51553174e+04,1.03329004e+04,8.52676636e+02
1.65591037e+00,1.03798545e+04,1.45352432e+04,1.00115918e+04,9.02929749e+02
1.72411728e+00,1.01935410e+04,1.42756016e+04,9.90028809e+03,9.47350464e+02
1.79407966e+00,1.01031055e+04,1.41498516e+04,9.86193750e+03,9.85875061e+02
1.86584306e+00,1.00724219e+04,1.41075762e+04,9.87010156e+03,1.01982751e+03
1.93945324e+00,1.00785879e+04,1.41167676e+04,9.90649121e+03,1.05201978e+03
2.01495814e+00,1.01023398e+04,1.41504883e+04,9.95451172e+03,1.08016650e+03
2.09240627e+00,1.01371934e+04,1.41996895e+04,1.00093555e+04,1.10654248e+03
2.17184782e+00,1.01844082e+04,1.42661406e+04,1.00732383e+04,1.13105322e+03
2.25333428e+00,1.02346621e+04,1.43367959e+04,1.01374121e+04,1.15379431e+03
2.33691788e+00,1.02732246e+04,1.43910234e+04,1.01873672e+04,1.17259680e+03
2.42265272e+00,1.02886660e+04,1.44128223e+04,1.02123438e+04,1.18694897e+03
2.51059437e+00,1.02769941e+04,1.43966201e+04,1.02087871e+04,1.19650757e+03
2.60079956e+00,1.02384453e+04,1.43427422e+04,1.01772246e+04,1.20161890e+03
2.69332647e+00,1.01948379e+04,1.42817715e+04,1.01401328e+04,1.20552002e+03
2.78823495e+00,1.01728633e+04,1.42511094e+04,1.01244844e+04,1.21180859e+03
2.88558602e+00,1.01917891e+04,1.42777461e+04,1.01495508e+04,1.22284705e+03
2.98544264e+00,1.02455391e+04,1.43531553e+04,1.02090000e+04,1.23757495e+03
3.08786964e+00,1.03140293e+04,1.44491953e+04,1.02823770e+04,1.25329602e+03
3.19293284e+00,1.03678281e+04,1.45246260e+04,1.03400342e+04,1.26611865e+03
3.30070019e+00,1.03945898e+04,1.45621680e+04,1.03699688e+04,1.27485156e+03
3.41124129e+00,1.03828652e+04,1.45457773e+04,1.03607344e+04,1.27811084e+03
3.52462745e+00,1.03232881e+04,1.44623516e+04,1.03035371e+04,1.27527124e+03
3.64093208e+00,1.02634736e+04,1.43786074e+04,1.02465889e+04,1.27272925e+03
3.76023054e+00,1.02071035e+04,1.42996895e+04,1.01929199e+04,1.27042065e+03
3.88259912e+00,1.01430059e+04,1.42099600e+04,1.01322256e+04,1.26781006e+03
4.00811720e+00,1.01612578e+04,1.42356113e+04,1.01545332e+04,1.27597559e+03
4.13686609e+00,1.02343652e+04,1.43381055e+04,1.02315820e+04,1.29092688e+03
4.26892853e+00,1.03362109e+04,1.44808525e+04,1.03370527e+04,1.30917212e+03
4.40439081e+00,1.04547080e+04,1.46469004e+04,1.04582910e+04,1.32869849e+03
4.54333878e+00,1.05512900e+04,1.47822129e+04,1.05561758e+04,1.34420605e+03
4.68586397e+00,1.05671484e+04,1.48044160e+04,1.05723535e+04,1.34881665e+03
4.83205652e+00,1.05386680e+04,1.47645146e+04,1.05443408e+04,1.34790186e+03
4.98201227e+00,1.04641270e+04,1.46600840e+04,1.04700137e+04,1.34093958e+03
5.13582754e+00,1.03368340e+04,1.44817656e+04,1.03434160e+04,1.32791895e+03
5.29360199e+00,1.02998164e+04,1.44299541e+04,1.03084668e+04,1.32749487e+03
5.45543718e+00,1.03475371e+04,1.44968564e+04,1.03584443e+04,1.33798389e+03
5.62143755e+00,1.04862324e+04,1.46912061e+04,1.04995938e+04,1.36048999e+03
5.79171038e+00,1.07493418e+04,1.50598398e+04,1.07648174e+04,1.39822192e+03
5.96636629e+00,1.10549561e+04,1.54879551e+04,1.10696699e+04,1.43934619e+03
6.14551687e+00,1.12891084e+04,1.58158906e+04,1.13002090e+04,1.46840637e+03
6.32927942e+00,1.13242656e+04,1.58649990e+04,1.13294434e+04,1.47073193e+03
6.51777077e+00,1.10462725e+04,1.54754414e+04,1.10467910e+04,1.43415308e+03
6.71111441e+00,1.05819531e+04,1.48249570e+04,1.05816738e+04,1.37774487e+03
6.90943432e+00,1.00451807e+04,1.40730508e+04,1.00473398e+04,1.31578918e+03
7.11285782e+00,9.70279785e+03,1.35935830e+04,9.71283691e+03,1.28437891e+03
7.32151794e+00,9.80394531e+03,1.37354512e+04,9.82123340e+03,1.31084973e+03
7.53554821e+00,1.01943369e+04,1.42825762e+04,1.02216602e+04,1.37705762e+03
7.75508738e+00,1.07790508e+04,1.51019443e+04,1.08166963e+04,1.46608228e+03
7.98027754e+00,1.11309512e+04,1.55945371e+04,1.11517734e+04,1.50171240e+03
8.21126270e+00,1.05403242e+04,1.47667891e+04,1.05503867e+04,1.43006946e+03
8.44819450e+00,1.09344834e+04,1.53196465e+04,1.09741045e+04,1.51504639e+03
8.69122219e+00,1.19834697e+04,1.67883320e+04,1.19836562e+04,1.62691260e+03
8.94050789e+00,1.08685518e+04,1.52261299e+04,1.08645742e+04,1.50937732e+03
9.19620800e+00,1.25939375e+04,1.76442754e+04,1.26331289e+04,1.79151465e+03
9.45849037e+00,1.51124961e+04,2.11722305e+04,1.51272656e+04,2.12026636e+03
9.72752285e+00,1.23559229e+04,1.73095703e+04,1.23323760e+04,1.76996912e+03
1.00034800e+01,9.44769824e+03,1.32351631e+04,9.42008984e+03,1.44114197e+03
1.02865391e+01,8.84772559e+03,1.23962480e+04,8.89371191e+03,1.47218152e+03
1.05768833e+01,1.08192285e+04,1.51590020e+04,1.09001074e+04,1.78825366e+03
1.08747025e+01,1.19715449e+04,1.67720137e+04,1.19994736e+04,1.92257495e+03
1.11801853e+01,1.08014727e+04,1.51312061e+04,1.07677236e+04,1.75845447e+03
1.14935322e+01,8.54081348e+03,1.19640088e+04,8.51315527e+03,1.49442542e+03
1.18149433e+01,6.65514014e+03,9.32294434e+03,6.67450342e+03,1.28127026e+03
1.21446266e+01,5.79348877e+03,8.11678564e+03,5.87560742e+03,1.17713623e+03
1.24827967e+01,5.91097168e+03,8.28286035e+03,6.04985693e+03,1.19172144e+03
1.28296700e+01,6.52323877e+03,9.14282129e+03,6.68837744e+03,1.27753076e+03
1.31854706e+01,7.02270801e+03,9.84391406e+03,7.14505420e+03,1.35703796e+03
1.35504293e+01,6.87815283e+03,9.64143945e+03,7.05871875e+03,1.39585815e+03
1.39247818e+01,7.20357617e+03,1.00951377e+04,7.52604297e+03,1.51129761e+03
1.43087692e+01,9.10106055e+03,1.27478750e+04,9.55856445e+03,1.76663452e+03
1.47026405e+01,1.17342012e+04,1.64386602e+04,1.25562686e+04,2.17195801e+03
1.51066484e+01,1.42115762e+04,1.99157754e+04,1.58865352e+04,2.62712500e+03
1.55210552e+01,1.47689082e+04,2.07028066e+04,1.75879688e+04,2.73279639e+03
1.59461288e+01,1.32710244e+04,1.86106934e+04,1.78249570e+04,2.51904688e+03
1.63821430e+01,1.31508789e+04,1.84656875e+04,2.01695898e+04,2.40962964e+03
1.68293781e+01,1.36472686e+04,1.92042285e+04,2.22395254e+04,2.27097559e+03
1.72881241e+01,1.24696064e+04,1.76054258e+04,2.15522461e+04,1.82372339e+03
1.77586803e+01,1.31888516e+04,1.86466543e+04,2.15001680e+04,1.53525879e+03
1.82413464e+01,1.62038398e+04,2.28822500e+04,2.33423281e+04,1.57653015e+03
1.87364349e+01,2.12717129e+04,2.99630234e+04,2.60303711e+04,1.76834070e+03
1.92442665e+01,2.48543672e+04,3.49136641e+04,2.64773594e+04,1.79914526e+03
1.97651691e+01,2.60723770e+04,3.65622578e+04,2.49263945e+04,1.70874707e+03
2.02994785e+01,2.59761211e+04,3.63718750e+04,2.21388359e+04,1.64722021e+03
2.08475418e+01,2.57705293e+04,3.60249688e+04,2.02890254e+04,1.66831616e+03
2.14097099e+01,2.57309180e+04,3.59202578e+04,1.94414023e+04,1.83341406e+03
2.19863453e+01,2.42322734e+04,3.37895977e+04,1.82954023e+04,1.92732886e+03
2.25778236e+01,2.23363828e+04,3.11485566e+04,1.79568848e+04,2.00599475e+03
2.31845264e+01,1.98940820e+04,2.77681328e+04,1.73335234e+04,1.98454077e+03
2.38068466e+01,2.01457148e+04,2.81576602e+04,1.85245137e+04,2.05002856e+03
2.44451809e+01,2.00438770e+04,2.80282656e+04,1.84474570e+04,1.79272266e+03
2.50999470e+01,1.80711523e+04,2.52649023e+04,1.62140742e+04,1.35081396e+03
2.57715645e+01,1.65698047e+04,2.31674551e+04,1.50283574e+04,1.33538782e+03
2.64604683e+01,1.56334824e+04,2.18626953e+04,1.42682637e+04,1.22503857e+03
2.71671047e+01,1.11459375e+04,1.55741367e+04,9.56948926e+03,6.00071045e+02
2.78919277e+01,5.22753516e+03,7.29008154e+03,3.95717725e+03,1.21903351e+02
2.86354065e+01,2.17868970e+03,3.03514941e+03,1.55245728e+03,2.28683777e+01
2.93980217e+01,1.25496594e+03,1.74832642e+03,6.69786621e+02,1.11766934e+00
3.01802654e+01,1.06109570e+03,1.46918982e+03,2.91590576e+02,1.23071941e-02
3.09826431e+01,6.69634888e+02,9.21688477e+02,1.24108704e+02,9.40000406e-04
3.18056717e+01,2.84972626e+02,3.90555267e+02,5.44167175e+01,7.46471400e-04
3.26498833e+01,2.11043076e+02,2.90422546e+02,6.14109497e+01,6.14676683e-05
3.35158234e+01,9.04507599e+01,1.24163742e+02,1.91214600e+01,2.06192017e-05
3.44040565e+01,6.15857220e+00,8.31189156e+00,4.27371740e-01,1.49097468e-05
3.53151436e+01,1.34138215e+00,1.80725694e+00,7.62012154e-02,6.39470090e-06
3.62496834e+01,5.46220064e-01,7.35263884e-01,2.34571435e-02,1.01514183e-06
3.72082787e+01,1.58880845e-01,2.12136343e-01,3.84439155e-03,2.50563119e-07
3.81915474e+01,2.38413680e-02,3.14881206e-02,1.77088776e-04,2.81204002e-08
3.92001228e+01,3.26487119e-04,4.21728240e-04,2.00532577e-06,2.19328583e-10
4.02346535e+01,2.61026362e-05,3.38898353e-05,6.48448975e-07,1.08007015e-11
4.12958107e+01,1.40830230e-06,1.80862048e-06,5.82484994e-08,6.81134999e-13
4.23842850e+01,1.52579418e-07,1.98216753e-07,4.97629449e-09,6.42622552e-14
4.35007744e+01,1.19694885e-08,1.57820192e-08,3.32935735e-10,4.74841334e-15
4.46459999e+01,8.70486683e-10,1.13197740e-09,2.04154194e-11,3.03820898e-16
4.58207016e+01,4.06579943e-11,5.32841792e-11,9.42413573e-13,8.94814787e-18
4.70256386e+01,9.21356416e-13,1.20165000e-12,2.68722338e-14,5.63424717e-19
4.82615852e+01,8.03257099e-15,1.05857045e-14,5.94775101e-16,7.47737750e-21
4.95293465e+01,2.58875583e-16,3.01968887e-16,2.25335265e-17,3.96228096e-22
5.08297386e+01,1.67197173e-17,3.72282528e-17,1.33169213e-18,1.14685868e-23
5.21635971e+01,5.05106984e-19,5.89002279e-19,1.45356313e-19,2.09233818e-25
5.35317917e+01,9.42250677e-20,1.12217286e-19,6.91382840e-22,5.25409173e-27
5.49351997e+01,1.12266115e-22,1.51910099e-22,3.69217259e-23,1.26570792e-28
5.63747253e+01,2.15175365e-23,2.66959934e-23,2.81486131e-25,6.86690999e-30
5.78513031e+01,4.11051721e-26,4.32059272e-26,1.07021939e-26,7.00983663e-32
5.93278885e+01,3.00499614e-27,4.54460765e-27,2.96422670e-28,7.09535370e-33
6.08044662e+01,3.64578448e-29,5.84327145e-29,1.60918082e-29,1.18947631e-34
6.22810478e+01,9.97350627e-31,2.02362293e-30,4.76700293e-31,6.27147186e-36
6.37576256e+01,5.34867738e-32,9.14583212e-32,1.98733483e-32,1.03379393e-37
6.52341995e+01,1.28639269e-33,2.31616615e-33,6.09140576e-34,4.83027581e-39
6.67107849e+01,6.22355612e-35,1.28918187e-34,2.52759927e-35,8.12753109e-41
6.81873703e+01,2.48287398e-36,3.68028921e-36,8.60500931e-37,2.80259693e-42
6.96639481e+01,1.02268163e-37,1.77061067e-37,4.15541047e-38,0.00000000e+00
7.11405258e+01,4.52058885e-39,7.25312085e-39,1.54142831e-39,0.00000000e+00
7.26171036e+01,1.16307773e-40,2.56437619e-40,2.80259693e-41,0.00000000e+00
7.40936813e+01,0.00000000e+00,0.00000000e+00,0.00000000e+00,0.00000000e+00
7.55702591e+01,0.00000000e+00,0.00000000e+00,0.00000000e+00,0.00000000e+00
7.70468445e+01,0.00000000e+00,0.00000000e+00,0.00000000e+00,0.00000000e+00
7.85234222e+01,0.00000000e+00,0.00000000e+00,0.00000000e+00,0.00000000e+00
8.00000000e+01,0.00000000e+00,0.00000000e+00,0.00000000e+00,0.00000000e+00
