Height (km), 7_8 um ash conc (g/kg), 15_6 um ash conc (g/kg), 125 um ash conc (g/kg), 1 mm ash conc (g/kg)
0.00000000e+00,0.00000000e+00,0.00000000e+00,0.00000000e+00,0.00000000e+00
3.99999991e-02,2.68731974e-02,3.72515097e-02,3.14066447e-02,1.04299343e+00
7.99999982e-02,4.02946398e-02,5.54765239e-02,4.08642963e-02,1.22065282e+00
1.19999997e-01,5.52340932e-02,7.56486803e-02,5.15672639e-02,1.32656157e+00
1.59999996e-01,7.17663988e-02,9.80545133e-02,6.55559450e-02,1.42623150e+00
2.00000003e-01,8.37122649e-02,1.14482939e-01,8.13289061e-02,1.51548362e+00
2.39999995e-01,9.95207950e-02,1.35615438e-01,9.22718197e-02,1.58857405e+00
2.80000001e-01,1.11010224e-01,1.51454091e-01,1.15005255e-01,1.71584129e+00
3.19999993e-01,1.25211567e-01,1.70502931e-01,1.28720954e-01,1.77655745e+00
3.60000014e-01,1.34889305e-01,1.83997154e-01,1.53369427e-01,1.91060948e+00
4.00000006e-01,1.45868510e-01,1.98947579e-01,1.70273915e-01,1.98564422e+00
4.39999998e-01,1.53340906e-01,2.09789157e-01,1.96787953e-01,2.08981705e+00
4.79999989e-01,1.62961692e-01,2.23345190e-01,2.22272500e-01,2.22699022e+00
5.19999981e-01,1.69664115e-01,2.33523935e-01,2.53166437e-01,2.31737232e+00
5.60000002e-01,1.84154615e-01,2.54341960e-01,2.92945862e-01,2.49585032e+00
6.00000024e-01,1.91751808e-01,2.65833050e-01,3.23357165e-01,2.58719301e+00
6.41029537e-01,2.15338960e-01,2.99589813e-01,3.77212346e-01,2.79644370e+00
6.83115125e-01,2.20778868e-01,3.07924569e-01,4.05110359e-01,2.89912724e+00
7.26283848e-01,2.40514278e-01,3.36493194e-01,4.63417023e-01,3.12224674e+00
7.70563781e-01,2.52326787e-01,3.53754550e-01,5.05719185e-01,3.22427058e+00
8.15983355e-01,2.85162568e-01,4.00728703e-01,5.87018788e-01,3.50447559e+00
8.62571895e-01,2.94295102e-01,4.14445341e-01,6.31954312e-01,3.62973404e+00
9.10359621e-01,3.33680868e-01,4.71039474e-01,7.22108901e-01,3.95562220e+00
9.59377348e-01,3.53413641e-01,5.00266492e-01,7.78876424e-01,4.16902304e+00
1.00965667e+00,3.82035255e-01,5.41463375e-01,8.28249574e-01,4.48419285e+00
1.06123006e+00,4.22016382e-01,5.98661005e-01,8.90412569e-01,4.83032322e+00
1.11413085e+00,4.64838892e-01,6.59682274e-01,9.48517680e-01,5.22480154e+00
1.16839325e+00,5.10789394e-01,7.24969149e-01,1.00820220e+00,5.67684793e+00
1.22405231e+00,5.58797657e-01,7.92961538e-01,1.06923699e+00,6.14650345e+00
1.28114390e+00,6.55740917e-01,9.29902554e-01,1.20465362e+00,6.77186346e+00
1.33970511e+00,7.71357894e-01,1.09238505e+00,1.34643567e+00,7.45591402e+00
1.39977336e+00,1.98305801e+04,2.77781484e+04,1.96113105e+04,2.03627673e+03
1.46138775e+00,2.38218984e+04,3.33529453e+04,2.25919961e+04,1.97411023e+03
1.52458799e+00,1.81081816e+04,2.53530762e+04,1.72207500e+04,1.62695569e+03
1.58941495e+00,1.72075898e+04,2.40980039e+04,1.66635469e+04,1.79261536e+03
1.65591037e+00,1.71843828e+04,2.40685645e+04,1.67994785e+04,1.92372766e+03
1.72411728e+00,1.73956602e+04,2.43662754e+04,1.70987090e+04,2.02968726e+03
1.79407966e+00,1.75752305e+04,2.46187402e+04,1.73243105e+04,2.09906787e+03
1.86584306e+00,1.75743125e+04,2.46179629e+04,1.73500703e+04,2.13103589e+03
1.93945324e+00,1.73905938e+04,2.43610156e+04,1.71874336e+04,2.13561646e+03
2.01495814e+00,1.71563672e+04,2.40334355e+04,1.69772695e+04,2.13895068e+03
2.09240627e+00,1.71507051e+04,2.40263008e+04,1.70087559e+04,2.18219678e+03
2.17184782e+00,1.76866719e+04,2.47778652e+04,1.75753926e+04,2.28797607e+03
2.25333428e+00,1.86265977e+04,2.60948027e+04,1.85240566e+04,2.42983862e+03
2.33691788e+00,1.96381660e+04,2.75116699e+04,1.95321211e+04,2.56771851e+03
2.42265272e+00,2.00893926e+04,2.81426855e+04,1.99380547e+04,2.59708813e+03
2.51059437e+00,1.89008535e+04,2.64769922e+04,1.87239414e+04,2.43119946e+03
2.60079956e+00,1.68085996e+04,2.35463457e+04,1.66497695e+04,2.17127612e+03
2.69332647e+00,1.46743584e+04,2.05566309e+04,1.45260684e+04,1.91274744e+03
2.78823495e+00,1.40001484e+04,1.96135195e+04,1.39072402e+04,1.88473767e+03
2.88558602e+00,1.58365928e+04,2.21864102e+04,1.57272588e+04,2.11540601e+03
2.98544264e+00,1.72087129e+04,2.41069141e+04,1.70284785e+04,2.25939209e+03
3.08786964e+00,1.79452969e+04,2.51381914e+04,1.77454277e+04,2.36214624e+03
3.19293284e+00,1.80206055e+04,2.52428984e+04,1.77868008e+04,2.36591309e+03
3.30070019e+00,1.59219678e+04,2.23035820e+04,1.57315576e+04,2.12996582e+03
3.41124129e+00,1.26562002e+04,1.77290391e+04,1.25137705e+04,1.73937463e+03
3.52462745e+00,1.02477207e+04,1.43569941e+04,1.01989023e+04,1.50329919e+03
3.64093208e+00,1.20197754e+04,1.68397832e+04,1.19533105e+04,1.71462000e+03
3.76023054e+00,1.41719971e+04,1.98520449e+04,1.39862178e+04,1.91552124e+03
3.88259912e+00,1.48827334e+04,2.08474355e+04,1.46913809e+04,2.03791199e+03
4.00811720e+00,1.51365264e+04,2.12033613e+04,1.49634053e+04,2.10798022e+03
4.13686609e+00,1.31678652e+04,1.84464688e+04,1.30551582e+04,1.88396179e+03
4.26892853e+00,1.04600342e+04,1.46535654e+04,1.03914697e+04,1.55058386e+03
4.40439081e+00,9.02216113e+03,1.26396582e+04,8.97781641e+03,1.37555359e+03
4.54333878e+00,1.01013564e+04,1.41508115e+04,1.00117979e+04,1.46812695e+03
4.68586397e+00,1.19601992e+04,1.67520742e+04,1.17477949e+04,1.61361597e+03
4.83205652e+00,1.25128330e+04,1.75257559e+04,1.22820996e+04,1.70483643e+03
4.98201227e+00,1.23523564e+04,1.73019941e+04,1.21674717e+04,1.74704163e+03
5.13582754e+00,1.08435850e+04,1.51891758e+04,1.07130322e+04,1.60078784e+03
5.29360199e+00,8.66300488e+03,1.21353184e+04,8.59237891e+03,1.36382092e+03
5.45543718e+00,6.98512207e+03,9.78553516e+03,6.95635693e+03,1.18206299e+03
5.62143755e+00,5.83154297e+03,8.16979053e+03,5.81979492e+03,1.05958667e+03
5.79171038e+00,5.19672266e+03,7.28086621e+03,5.19939941e+03,1.00998108e+03
5.96636629e+00,5.18431787e+03,7.26379199e+03,5.18876416e+03,1.03181165e+03
6.14551687e+00,5.68776758e+03,7.96796387e+03,5.64312646e+03,1.09157947e+03
6.32927942e+00,6.79154297e+03,9.51239258e+03,6.67710059e+03,1.24502234e+03
6.51777077e+00,8.89671191e+03,1.24599814e+04,8.71186719e+03,1.52199731e+03
6.71111441e+00,1.09417930e+04,1.53224180e+04,1.06488809e+04,1.76510596e+03
6.90943432e+00,1.17780332e+04,1.64937441e+04,1.14814131e+04,1.96788306e+03
7.11285782e+00,1.27556738e+04,1.78668594e+04,1.25862334e+04,2.28262549e+03
7.32151794e+00,1.25640928e+04,1.76005762e+04,1.24804248e+04,2.35662207e+03
7.53554821e+00,9.64321777e+03,1.35080986e+04,9.56736230e+03,2.01047742e+03
7.75508738e+00,6.50231836e+03,9.10809570e+03,6.44840625e+03,1.66491797e+03
7.98027754e+00,4.68346680e+03,6.56061377e+03,4.65226855e+03,1.50194775e+03
8.21126270e+00,4.12935840e+03,5.78502539e+03,4.11540967e+03,1.49641919e+03
8.44819450e+00,5.24370264e+03,7.34519287e+03,5.18539746e+03,1.65545422e+03
8.69122219e+00,7.06085938e+03,9.88807617e+03,6.89434473e+03,1.85744983e+03
8.94050789e+00,7.79807324e+03,1.09199238e+04,7.59464111e+03,1.97664490e+03
9.19620800e+00,8.07190039e+03,1.13044121e+04,7.89688867e+03,2.08645679e+03
9.45849037e+00,8.00170068e+03,1.12067705e+04,7.85621582e+03,2.16600757e+03
9.72752285e+00,6.95531738e+03,9.74180566e+03,6.85722119e+03,2.14420386e+03
1.00034800e+01,6.10291553e+03,8.55008301e+03,6.10442480e+03,2.13333447e+03
1.02865391e+01,6.10801416e+03,8.55960645e+03,6.19813330e+03,2.16760352e+03
1.05768833e+01,6.22663232e+03,8.72634766e+03,6.33552490e+03,2.14095801e+03
1.08747025e+01,6.23668652e+03,8.73865625e+03,6.28467676e+03,2.07840625e+03
1.11801853e+01,6.63902197e+03,9.29985742e+03,6.61701074e+03,2.13998608e+03
1.14935322e+01,6.94863574e+03,9.73282227e+03,6.92516309e+03,2.29773291e+03
1.18149433e+01,7.09433252e+03,9.93731738e+03,7.13540039e+03,2.47023047e+03
1.21446266e+01,7.21083008e+03,1.01015957e+04,7.37567969e+03,2.63681592e+03
1.24827967e+01,6.98819580e+03,9.79103613e+03,7.33245557e+03,2.77643115e+03
1.28296700e+01,6.59563867e+03,9.24362402e+03,7.20192969e+03,2.88735938e+03
1.31854706e+01,6.20805859e+03,8.70571973e+03,7.15374707e+03,2.92052051e+03
1.35504293e+01,6.10102246e+03,8.56221484e+03,7.42505371e+03,2.88107520e+03
1.39247818e+01,6.82977441e+03,9.59018555e+03,8.74051074e+03,2.88319482e+03
1.43087692e+01,8.31636523e+03,1.16843135e+04,1.11377520e+04,2.98398145e+03
1.47026405e+01,9.42126953e+03,1.32495273e+04,1.33473125e+04,2.97494629e+03
1.51066484e+01,1.12035068e+04,1.57630293e+04,1.57655742e+04,2.99065283e+03
1.55210552e+01,1.39186680e+04,1.95766562e+04,1.85457598e+04,3.08263379e+03
1.59461288e+01,1.78929258e+04,2.51569512e+04,2.24206641e+04,3.19223096e+03
1.63821430e+01,2.17128320e+04,3.05075898e+04,2.60061582e+04,3.17626514e+03
1.68293781e+01,2.50466953e+04,3.51583086e+04,2.86222305e+04,3.21274756e+03
1.72881241e+01,2.81962285e+04,3.95566953e+04,3.07048633e+04,3.26279663e+03
1.77586803e+01,3.02027832e+04,4.23441172e+04,3.09959941e+04,3.26054297e+03
1.82413464e+01,3.07626855e+04,4.30947305e+04,2.95732930e+04,3.24039307e+03
1.87364349e+01,3.05627969e+04,4.27735703e+04,2.78782227e+04,3.25495386e+03
1.92442665e+01,2.99616328e+04,4.19180195e+04,2.65836973e+04,3.32317383e+03
1.97651691e+01,2.95082930e+04,4.12757461e+04,2.61148594e+04,3.43943091e+03
2.02994785e+01,2.91847871e+04,4.08122148e+04,2.61230410e+04,3.41609595e+03
2.08475418e+01,2.61954453e+04,3.66267070e+04,2.36381914e+04,3.26350879e+03
2.14097099e+01,2.42819629e+04,3.39688438e+04,2.22807910e+04,3.30415771e+03
2.19863453e+01,2.51676777e+04,3.52190469e+04,2.31144844e+04,3.31919922e+03
2.25778236e+01,2.70294082e+04,3.78136562e+04,2.46695703e+04,3.39234253e+03
2.31845264e+01,2.75004961e+04,3.84699258e+04,2.52461699e+04,3.41627197e+03
2.38068466e+01,2.56394023e+04,3.58713477e+04,2.40105449e+04,3.30221533e+03
2.44451809e+01,2.60127969e+04,3.64045586e+04,2.48778086e+04,3.32557983e+03
2.50999470e+01,2.52922988e+04,3.53963203e+04,2.39869785e+04,2.92180469e+03
2.57715645e+01,2.03649883e+04,2.84980000e+04,1.91167832e+04,2.15413525e+03
2.64604683e+01,1.72928105e+04,2.41989434e+04,1.61003789e+04,1.64054187e+03
2.71671047e+01,1.54638301e+04,2.16383105e+04,1.42905557e+04,1.44044885e+03
2.78919277e+01,1.42241035e+04,1.99017246e+04,1.29836240e+04,1.03393396e+03
2.86354065e+01,9.18957520e+03,1.28432285e+04,7.63387402e+03,2.44240662e+02
2.93980217e+01,1.61768042e+03,2.25013086e+03,9.21930115e+02,2.80200750e-01
3.01802654e+01,2.62997162e+02,3.63736908e+02,9.14952927e+01,2.06569374e-01
3.09826431e+01,1.58968582e+02,2.19625565e+02,4.92467308e+01,1.58980638e-02
3.18056717e+01,8.71974792e+01,1.20361588e+02,1.91596699e+01,2.18902365e-03
3.26498833e+01,6.60742188e+01,9.07669983e+01,4.70622063e+00,4.07140942e-05
3.35158234e+01,3.48662148e+01,4.72799683e+01,1.63738012e+00,3.06699803e-05
3.44040565e+01,1.69915085e+01,2.30361233e+01,7.86150277e-01,1.12867019e-05
3.53151436e+01,1.11227493e+01,1.50211954e+01,1.95489749e-01,1.32511013e-05
3.62496834e+01,5.13659811e+00,6.87616396e+00,5.24640195e-02,3.83746965e-06
3.72082787e+01,2.24333358e+00,2.97919846e+00,7.05213621e-02,3.06750712e-06
3.81915474e+01,9.65654016e-01,1.28831089e+00,4.57656533e-02,3.06892207e-06
3.92001228e+01,3.59346569e-01,4.78845775e-01,4.61152894e-03,1.60316119e-06
4.02346535e+01,1.51195526e-01,1.99683473e-01,1.02774461e-03,4.43827616e-07
4.12958107e+01,4.16587740e-02,5.41917048e-02,1.40365752e-04,1.00893516e-07
4.23842850e+01,8.50981474e-03,1.09204073e-02,7.28319037e-06,1.44866368e-08
4.35007744e+01,1.34173641e-03,1.69312162e-03,2.16011063e-06,1.60237967e-09
4.46459999e+01,1.34353410e-04,1.66239013e-04,5.19265541e-07,1.76705831e-10
4.58207016e+01,6.65128391e-06,8.07380457e-06,6.29301411e-08,9.20188405e-12
4.70256386e+01,2.30206652e-07,2.83386555e-07,5.01803576e-09,3.82224146e-13
4.82615852e+01,1.46362185e-08,1.85629432e-08,2.99520519e-10,2.66747887e-14
4.95293465e+01,1.30049327e-09,1.57544111e-09,3.02377810e-11,1.22998364e-15
5.08297386e+01,1.68912644e-11,2.13600995e-11,6.03001264e-13,1.86433953e-17
5.21635971e+01,2.22321402e-12,2.77185284e-12,5.89742895e-14,4.22211017e-18
5.35317917e+01,1.92814311e-14,2.43182837e-14,3.66291828e-16,1.13767538e-20
5.49351997e+01,1.12553918e-15,1.66199024e-15,1.77409181e-17,3.26074032e-21
5.63747253e+01,1.36012713e-17,1.29833558e-17,1.37221596e-17,3.67898883e-23
5.78513031e+01,1.75255931e-17,1.93503221e-17,2.50309151e-20,3.47866597e-24
5.93278885e+01,7.33697571e-21,1.42219024e-19,1.15586099e-20,1.24840714e-25
6.08044662e+01,1.58202622e-20,1.68265016e-20,1.48167629e-22,7.64826686e-27
6.22810478e+01,1.01850822e-22,2.15920115e-22,8.26992075e-24,1.69705664e-28
6.37576256e+01,1.58500552e-23,1.71029020e-23,4.86981340e-25,1.81034315e-29
6.52341995e+01,1.52418626e-25,2.82144287e-25,8.57218322e-27,4.61588984e-31
6.67107849e+01,1.93486395e-26,2.07091518e-26,1.31696929e-27,3.61117860e-32
6.81873703e+01,2.14582059e-28,3.77957540e-28,2.45282947e-29,1.23663879e-33
6.96639481e+01,2.02436874e-29,2.34128638e-29,2.81912171e-30,8.04380051e-35
7.11405258e+01,6.89603573e-31,8.08574322e-31,1.24052869e-31,2.79435433e-36
7.26171036e+01,5.68011095e-32,6.99272790e-32,1.17763206e-32,2.30503777e-37
7.40936813e+01,3.70739457e-33,4.88501363e-33,1.13994446e-33,1.46575819e-38
7.55702591e+01,1.96600099e-34,2.60542767e-34,7.31877304e-35,7.10458321e-40
7.70468445e+01,8.63106799e-36,1.10750114e-35,4.10277626e-36,1.40129846e-42
7.85234222e+01,2.92289829e-37,3.64303970e-37,1.68329577e-37,0.00000000e+00
8.00000000e+01,2.30891948e-38,2.87098029e-38,1.81019736e-38,0.00000000e+00
