Height (km), 7_8 um ash conc (g/kg), 15_6 um ash conc (g/kg), 125 um ash conc (g/kg), 1 mm ash conc (g/kg)
0.00000000e+00,0.00000000e+00,0.00000000e+00,0.00000000e+00,0.00000000e+00
3.99999991e-02,6.62997831e-03,1.06887417e-02,2.57270448e-02,3.86331184e-03
7.99999982e-02,1.38421338e-02,2.19427310e-02,2.84961127e-02,2.14909986e-02
1.19999997e-01,2.32112706e-02,3.61322872e-02,3.08741480e-02,7.96407908e-02
1.59999996e-01,3.22855040e-02,4.95225079e-02,3.12575847e-02,2.16782689e-01
2.00000003e-01,4.10314687e-02,6.19982406e-02,3.15356329e-02,2.92379349e-01
2.39999995e-01,4.89822850e-02,7.28803426e-02,2.96799280e-02,4.39872891e-01
2.80000001e-01,5.48011288e-02,8.05025101e-02,2.86261775e-02,6.05257869e-01
3.19999993e-01,5.82659133e-02,8.46429393e-02,2.79760454e-02,6.97538018e-01
3.60000014e-01,6.26359656e-02,8.98471996e-02,2.88481675e-02,8.56091082e-01
4.00000006e-01,6.44102842e-02,9.15098861e-02,3.02338600e-02,9.43679452e-01
4.39999998e-01,6.54808879e-02,9.22459438e-02,3.21802981e-02,1.07081723e+00
4.79999989e-01,6.54413700e-02,9.15608406e-02,3.45433429e-02,1.15028596e+00
5.19999981e-01,6.35290593e-02,8.85983631e-02,3.72664593e-02,1.28697467e+00
5.60000002e-01,6.28964007e-02,8.76792669e-02,4.10161242e-02,1.40883756e+00
6.00000024e-01,6.57798052e-02,9.18844491e-02,4.76634577e-02,1.52428710e+00
6.41029537e-01,6.73413873e-02,9.42825377e-02,5.20695075e-02,1.59978652e+00
6.83115125e-01,7.12164119e-02,9.98811871e-02,5.71983680e-02,1.67927814e+00
7.26283848e-01,7.83126801e-02,1.09889030e-01,6.41392916e-02,1.70935869e+00
7.70563781e-01,8.43771100e-02,1.18340194e-01,6.90472126e-02,1.77833498e+00
8.15983355e-01,9.21380967e-02,1.29035309e-01,7.48199522e-02,1.73625278e+00
8.62571895e-01,1.00217640e-01,1.40126422e-01,8.05020332e-02,1.76294565e+00
9.10359621e-01,1.06867224e-01,1.49188906e-01,8.46566707e-02,1.69834113e+00
9.59377348e-01,1.16149485e-01,1.62042052e-01,9.33950320e-02,1.87983000e+00
1.00965667e+00,1.24815777e-01,1.74035609e-01,1.00224495e-01,1.98128474e+00
1.06123006e+00,1.35276228e-01,1.88614413e-01,1.08764313e-01,2.53605366e+00
1.11413085e+00,1.48537233e-01,2.07294106e-01,1.22631639e-01,1.94489253e+00
1.16839325e+00,1.66818917e-01,2.33059853e-01,1.42492503e-01,3.33858228e+00
1.22405231e+00,1.90933555e-01,2.67110407e-01,1.72080666e-01,2.56676316e+00
1.28114390e+00,2.16593921e-01,3.03256452e-01,2.02281401e-01,3.62925959e+00
1.33970511e+00,2.59952664e-01,3.65054280e-01,2.63942808e-01,3.64298010e+00
1.39977336e+00,2.00959453e+04,2.81505527e+04,1.99076074e+04,2.10785571e+03
1.46138775e+00,2.47429023e+04,3.46413984e+04,2.33857832e+04,2.02791736e+03
1.52458799e+00,1.65447891e+04,2.31631289e+04,1.56993428e+04,1.49619580e+03
1.58941495e+00,1.54069932e+04,2.15764609e+04,1.49431543e+04,1.67503552e+03
1.65591037e+00,1.53387646e+04,2.14852461e+04,1.51048730e+04,1.88180774e+03
1.72411728e+00,1.63933242e+04,2.29667070e+04,1.63674463e+04,2.21686426e+03
1.79407966e+00,1.85520918e+04,2.59945762e+04,1.87104141e+04,2.66574805e+03
1.86584306e+00,2.11893105e+04,2.96913281e+04,2.14702207e+04,3.07141455e+03
1.93945324e+00,2.31860977e+04,3.24877852e+04,2.34229492e+04,3.19267969e+03
2.01495814e+00,2.32206367e+04,3.25311895e+04,2.31880176e+04,2.91279395e+03
2.09240627e+00,2.08532988e+04,2.92100430e+04,2.05732109e+04,2.41295605e+03
2.17184782e+00,1.75522246e+04,2.45838477e+04,1.71833809e+04,1.93857483e+03
2.25333428e+00,1.48178672e+04,2.07532578e+04,1.44412930e+04,1.60898657e+03
2.33691788e+00,1.29827266e+04,1.81830215e+04,1.26363350e+04,1.43330322e+03
2.42265272e+00,1.18775527e+04,1.66366426e+04,1.16294014e+04,1.39662134e+03
2.51059437e+00,1.18255186e+04,1.65660430e+04,1.16861523e+04,1.50192163e+03
2.60079956e+00,1.26477275e+04,1.77198691e+04,1.26022656e+04,1.72502661e+03
2.69332647e+00,1.38746016e+04,1.94408086e+04,1.39396523e+04,2.00892651e+03
2.78823495e+00,1.54855156e+04,2.16993418e+04,1.56411914e+04,2.32632471e+03
2.88558602e+00,1.73429336e+04,2.43031523e+04,1.76046250e+04,2.71369971e+03
2.98544264e+00,1.93646836e+04,2.71374629e+04,1.97614355e+04,3.15240527e+03
3.08786964e+00,2.13859238e+04,2.99708672e+04,2.19094375e+04,3.56513306e+03
3.19293284e+00,2.27669277e+04,3.19062969e+04,2.33607734e+04,3.78664282e+03
3.30070019e+00,2.34816406e+04,3.29068711e+04,2.40617480e+04,3.79795459e+03
3.41124129e+00,2.34144902e+04,3.28106562e+04,2.38854766e+04,3.60315283e+03
3.52462745e+00,2.23945020e+04,3.13788359e+04,2.27018613e+04,3.25935352e+03
3.64093208e+00,2.11343652e+04,2.96110996e+04,2.12970176e+04,2.92833496e+03
3.76023054e+00,1.99539746e+04,2.79556758e+04,2.00014668e+04,2.66412866e+03
3.88259912e+00,1.88092402e+04,2.63507656e+04,1.87732930e+04,2.44784131e+03
4.00811720e+00,1.78301836e+04,2.49784082e+04,1.77380605e+04,2.29183228e+03
4.13686609e+00,1.70001621e+04,2.38152500e+04,1.68776133e+04,2.18256445e+03
4.26892853e+00,1.63449004e+04,2.28973594e+04,1.62176660e+04,2.11870532e+03
4.40439081e+00,1.58088359e+04,2.21465137e+04,1.56828066e+04,2.07617090e+03
4.54333878e+00,1.52088301e+04,2.13061348e+04,1.50900967e+04,2.03545068e+03
4.68586397e+00,1.48004512e+04,2.07344863e+04,1.47042148e+04,2.03001709e+03
4.83205652e+00,1.49102246e+04,2.08887578e+04,1.48358086e+04,2.08870190e+03
4.98201227e+00,1.52480293e+04,2.13621523e+04,1.51813271e+04,2.16394409e+03
5.13582754e+00,1.53768457e+04,2.15426562e+04,1.53202168e+04,2.21248950e+03
5.29360199e+00,1.54647148e+04,2.16658223e+04,1.54225986e+04,2.25332129e+03
5.45543718e+00,1.55376289e+04,2.17679824e+04,1.55070391e+04,2.28743140e+03
5.62143755e+00,1.55620469e+04,2.18027715e+04,1.55694639e+04,2.34231128e+03
5.79171038e+00,1.59228291e+04,2.23091992e+04,1.59882393e+04,2.45925635e+03
5.96636629e+00,1.61504961e+04,2.26292539e+04,1.62816191e+04,2.55650488e+03
6.14551687e+00,1.64143164e+04,2.30001777e+04,1.66225039e+04,2.65786768e+03
6.32927942e+00,1.72747305e+04,2.42062695e+04,1.75279180e+04,2.79644238e+03
6.51777077e+00,1.77092148e+04,2.48152344e+04,1.79839316e+04,2.85462158e+03
6.71111441e+00,1.82841719e+04,2.56210469e+04,1.85757227e+04,2.92108569e+03
6.90943432e+00,1.97119023e+04,2.76208555e+04,1.99818164e+04,3.05994775e+03
7.11285782e+00,2.05424023e+04,2.87831094e+04,2.07436055e+04,3.08360498e+03
7.32151794e+00,2.02504512e+04,2.83718926e+04,2.03372812e+04,2.93978271e+03
7.53554821e+00,1.95009863e+04,2.73200820e+04,1.94915078e+04,2.76692480e+03
7.75508738e+00,1.88227871e+04,2.63687402e+04,1.87424102e+04,2.62816748e+03
7.98027754e+00,1.80832500e+04,2.53318086e+04,1.79471641e+04,2.49910840e+03
8.21126270e+00,1.71887773e+04,2.40784805e+04,1.70321348e+04,2.37977588e+03
8.44819450e+00,1.63326973e+04,2.28791836e+04,1.61735098e+04,2.28491162e+03
8.69122219e+00,1.54847051e+04,2.16918340e+04,1.53582217e+04,2.22477759e+03
8.94050789e+00,1.53463027e+04,2.14989727e+04,1.52707617e+04,2.26586279e+03
9.19620800e+00,1.55368652e+04,2.17662754e+04,1.54802002e+04,2.32854834e+03
9.45849037e+00,1.54017402e+04,2.15777637e+04,1.53912324e+04,2.37389746e+03
9.72752285e+00,1.58911562e+04,2.22641426e+04,1.59250820e+04,2.49421851e+03
1.00034800e+01,1.60986943e+04,2.25548945e+04,1.61463926e+04,2.55465747e+03
1.02865391e+01,1.59764541e+04,2.23849238e+04,1.60994834e+04,2.61313086e+03
1.05768833e+01,1.73111562e+04,2.42549297e+04,1.74529805e+04,2.80415186e+03
1.08747025e+01,1.72956270e+04,2.42327441e+04,1.74269785e+04,2.80502295e+03
1.11801853e+01,1.76379102e+04,2.47136875e+04,1.78430957e+04,2.91832642e+03
1.14935322e+01,1.96784980e+04,2.75710352e+04,1.98231680e+04,3.12889233e+03
1.18149433e+01,1.82083438e+04,2.55108281e+04,1.83307070e+04,2.92753247e+03
1.21446266e+01,1.92689473e+04,2.69982969e+04,1.94726523e+04,3.12415942e+03
1.24827967e+01,2.11509570e+04,2.96316855e+04,2.11999414e+04,3.22273120e+03
1.28296700e+01,1.78001777e+04,2.49384102e+04,1.78795879e+04,2.84978540e+03
1.31854706e+01,2.00421367e+04,2.80808516e+04,2.02003750e+04,3.20653931e+03
1.35504293e+01,2.12888438e+04,2.98238652e+04,2.13055234e+04,3.23456274e+03
1.39247818e+01,1.91092031e+04,2.67703516e+04,1.92063262e+04,3.03537183e+03
1.43087692e+01,2.08916250e+04,2.92691719e+04,2.11581035e+04,3.39471826e+03
1.47026405e+01,2.08752969e+04,2.92484980e+04,2.13526699e+04,3.43961475e+03
1.51066484e+01,2.12364102e+04,2.97578867e+04,2.19838770e+04,3.56221704e+03
1.55210552e+01,1.80386152e+04,2.52793730e+04,1.89514902e+04,3.09339209e+03
1.59461288e+01,1.60990049e+04,2.25699512e+04,1.74666172e+04,3.02832324e+03
1.63821430e+01,2.16454961e+04,3.03464590e+04,2.33344785e+04,3.76441113e+03
1.68293781e+01,2.77742734e+04,3.89295156e+04,2.92009160e+04,4.11035010e+03
1.72881241e+01,2.12150820e+04,2.97425684e+04,2.26495059e+04,3.20039087e+03
1.77586803e+01,1.84338047e+04,2.58605742e+04,2.04253926e+04,3.10023755e+03
1.82413464e+01,2.16049453e+04,3.03091895e+04,2.35878164e+04,3.43665894e+03
1.87364349e+01,2.13195684e+04,2.99021855e+04,2.30138301e+04,3.32877856e+03
1.92442665e+01,1.81653379e+04,2.54819453e+04,2.01764688e+04,3.04371802e+03
1.97651691e+01,1.96039082e+04,2.75002949e+04,2.16092617e+04,3.05831079e+03
2.02994785e+01,2.14687012e+04,3.01126113e+04,2.32687715e+04,3.01435767e+03
2.08475418e+01,2.33730137e+04,3.27866328e+04,2.56800371e+04,3.21233496e+03
2.14097099e+01,3.09625352e+04,4.34257422e+04,3.32080820e+04,3.88693848e+03
2.19863453e+01,3.80859805e+04,5.33833047e+04,3.83066055e+04,4.21308496e+03
2.25778236e+01,4.19744648e+04,5.87951445e+04,4.03071289e+04,4.65822607e+03
2.31845264e+01,4.34989219e+04,6.09070352e+04,4.09457461e+04,4.93068408e+03
2.38068466e+01,4.29403242e+04,6.01144648e+04,4.00108281e+04,4.78436426e+03
2.44451809e+01,4.05597578e+04,5.67630391e+04,3.69137656e+04,4.22497754e+03
2.50999470e+01,3.44324375e+04,4.81565195e+04,3.08307051e+04,3.90793237e+03
2.57715645e+01,3.63299570e+04,5.08227109e+04,3.38159258e+04,4.48985498e+03
2.64604683e+01,4.83430625e+04,6.76671016e+04,4.62674844e+04,6.11738135e+03
2.71671047e+01,5.44480312e+04,7.62071172e+04,5.13844961e+04,5.74137207e+03
2.78919277e+01,4.20437344e+04,5.88268750e+04,3.88358633e+04,3.88754688e+03
2.86354065e+01,3.60171836e+04,5.04029141e+04,3.37178398e+04,3.17644385e+03
2.93980217e+01,2.64225469e+04,3.69530352e+04,2.34069863e+04,1.26571509e+03
3.01802654e+01,1.16073008e+04,1.62117090e+04,9.27666113e+03,2.46479828e+02
3.09826431e+01,5.15650439e+03,7.19606055e+03,3.95204395e+03,1.10083733e+02
3.18056717e+01,1.82387573e+03,2.53753979e+03,1.09082153e+03,3.88103151e+00
3.26498833e+01,4.83851837e+02,6.69919861e+02,1.84267365e+02,1.50618255e-01
3.35158234e+01,2.80006409e+02,3.87141663e+02,1.01396843e+02,4.78455648e-02
3.44040565e+01,1.98451721e+02,2.74214508e+02,6.71619263e+01,2.01298902e-03
3.53151436e+01,1.49203094e+02,2.06134201e+02,5.18999443e+01,4.45706391e-04
3.62496834e+01,9.46221313e+01,1.30574188e+02,2.95214653e+01,4.34103160e-04
3.72082787e+01,7.06317215e+01,9.73712387e+01,1.89807320e+01,4.60545270e-05
3.81915474e+01,3.60930061e+01,4.94436493e+01,6.28753328e+00,9.12414362e-06
3.92001228e+01,8.86351871e+00,1.20425014e+01,9.90494013e-01,1.63972641e-06
4.02346535e+01,2.18640852e+00,2.95386052e+00,1.41868994e-01,3.91037617e-07
4.12958107e+01,5.22183180e-01,7.02989578e-01,2.82914769e-02,8.44160510e-08
4.23842850e+01,6.33886084e-02,8.47452953e-02,2.20236927e-03,1.50931463e-08
4.35007744e+01,5.41701261e-03,7.17066834e-03,2.03725664e-04,1.37616796e-09
4.46459999e+01,3.68513196e-04,4.88840509e-04,4.55719373e-06,1.09351382e-10
4.58207016e+01,9.35070966e-06,1.18294229e-05,1.86556846e-07,8.75694569e-12
4.70256386e+01,2.85569513e-07,3.70368184e-07,9.28331367e-09,6.97114946e-13
4.82615852e+01,2.09492264e-08,2.73725949e-08,8.30413904e-10,6.65485394e-14
4.95293465e+01,1.09829934e-09,1.41483680e-09,7.09671905e-11,5.15659132e-15
5.08297386e+01,5.59518196e-11,7.52560167e-11,4.67111679e-12,2.13910812e-16
5.21635971e+01,2.41101735e-12,3.24934784e-12,2.22416812e-13,1.53566048e-17
5.35317917e+01,1.19047215e-13,1.58989006e-13,6.78049578e-15,1.15446341e-19
5.49351997e+01,4.55650278e-15,6.20354098e-15,4.53195747e-17,1.73023033e-20
5.63747253e+01,3.95804401e-17,4.10166374e-17,2.18233109e-17,6.19439836e-22
5.78513031e+01,2.57269532e-17,2.74216759e-17,4.90157504e-20,1.27803576e-23
5.93278885e+01,6.89890991e-20,5.01095313e-19,2.07070740e-20,6.85385626e-25
6.08044662e+01,2.41889034e-20,2.79245221e-20,2.26752577e-22,2.24003017e-26
6.22810478e+01,4.90197207e-22,1.01132847e-21,2.09949713e-23,1.14053629e-27
6.37576256e+01,2.65460277e-23,3.08885556e-23,4.56294552e-25,4.33833505e-29
6.52341995e+01,7.37954824e-25,1.24387430e-24,3.41263385e-26,2.45381361e-30
6.67107849e+01,2.66854973e-26,3.03819085e-26,8.44838829e-28,8.46331424e-32
6.81873703e+01,1.00024761e-27,1.40495193e-27,5.25169559e-29,3.65374611e-33
6.96639481e+01,2.76957573e-29,3.37394549e-29,2.23199482e-30,1.10830612e-34
7.11405258e+01,1.42697397e-30,1.95395411e-30,8.72863565e-32,5.18450836e-36
7.26171036e+01,9.55861871e-32,1.19565337e-31,6.76776693e-33,3.28294814e-37
7.40936813e+01,5.74909087e-33,7.38244762e-33,4.23586221e-34,1.63937907e-38
7.55702591e+01,3.12790208e-34,3.89249710e-34,2.43039943e-35,7.21668709e-40
7.70468445e+01,1.33286940e-35,1.65917010e-35,1.05840490e-36,2.80259693e-42
7.85234222e+01,3.93117491e-37,4.91085069e-37,3.15838661e-38,0.00000000e+00
8.00000000e+01,1.16251721e-38,1.51452338e-38,1.05938164e-39,0.00000000e+00
