Height (km), 7_8 um ash conc (g/kg), 15_6 um ash conc (g/kg), 125 um ash conc (g/kg), 1 mm ash conc (g/kg)
0.00000000e+00,0.00000000e+00,0.00000000e+00,0.00000000e+00,0.00000000e+00
3.99999991e-02,1.08736238e-08,1.82850446e-08,2.27960199e-03,4.70109701e-01
7.99999982e-02,2.72563003e-08,4.86183076e-08,3.54779791e-03,5.32721996e-01
1.19999997e-01,4.76157176e-08,8.61045564e-08,4.36148420e-03,5.59372723e-01
1.59999996e-01,8.04134075e-08,1.45220113e-07,5.40129235e-03,5.94707131e-01
2.00000003e-01,1.52194886e-07,2.74407341e-07,7.14247255e-03,6.72636509e-01
2.39999995e-01,3.60798367e-07,6.38472102e-07,9.53309890e-03,6.99420452e-01
2.80000001e-01,1.80803261e-06,3.42636463e-06,1.60879865e-02,8.24452877e-01
3.19999993e-01,9.58808596e-06,1.68411134e-05,2.58035176e-02,8.64326954e-01
3.60000014e-01,2.42632123e-05,4.25165563e-05,3.83186154e-02,1.01780701e+00
4.00000006e-01,1.17209391e-04,1.93562300e-04,6.05712608e-02,1.05450749e+00
4.39999998e-01,1.81649899e-04,2.98065832e-04,7.47152716e-02,1.14014792e+00
4.79999989e-01,2.79186585e-04,4.55463043e-04,9.61775482e-02,1.23386765e+00
5.19999981e-01,4.90885926e-04,7.87144061e-04,1.12833902e-01,1.26160789e+00
5.60000002e-01,6.57514203e-04,1.06925925e-03,1.35916084e-01,1.39638770e+00
6.00000024e-01,9.46614251e-04,1.55549473e-03,1.58226654e-01,1.39880323e+00
6.41029537e-01,1.47708354e-03,2.43366323e-03,1.92155316e-01,1.54512739e+00
6.83115125e-01,2.17770925e-03,3.61090619e-03,2.25523219e-01,1.56173611e+00
7.26283848e-01,3.86756798e-03,6.30735466e-03,2.68832803e-01,1.70861459e+00
7.70563781e-01,5.56234969e-03,9.10935923e-03,3.24509919e-01,1.70620012e+00
8.15983355e-01,8.39890912e-03,1.37305288e-02,4.07932997e-01,1.91388941e+00
8.62571895e-01,1.24036111e-02,2.02049725e-02,4.66147423e-01,1.87447047e+00
9.10359621e-01,1.85622945e-02,2.99972426e-02,5.34439921e-01,2.12125492e+00
9.59377348e-01,2.67652236e-02,4.29399461e-02,5.65808892e-01,2.18640900e+00
1.00965667e+00,3.86678986e-02,6.15055859e-02,5.97254395e-01,2.39910698e+00
1.06123006e+00,5.88810295e-02,9.27201509e-02,5.92657030e-01,2.64411736e+00
1.11413085e+00,8.96652937e-02,1.38387352e-01,5.66746891e-01,2.88205409e+00
1.16839325e+00,1.29457355e-01,1.95071518e-01,5.94712734e-01,3.38212419e+00
1.22405231e+00,1.74597114e-01,2.58440673e-01,6.30337119e-01,3.48830581e+00
1.28114390e+00,2.32409999e-01,3.39284420e-01,6.73017621e-01,3.78234315e+00
1.33970511e+00,3.09544295e-01,4.46505129e-01,7.44363427e-01,4.20238304e+00
1.39977336e+00,2.01839531e+04,2.82746504e+04,2.00505898e+04,2.14025903e+03
1.46138775e+00,2.59087051e+04,3.62737812e+04,2.44388418e+04,2.08178027e+03
1.52458799e+00,1.57217734e+04,2.20097461e+04,1.48909355e+04,1.41365991e+03
1.58941495e+00,1.53119668e+04,2.14444375e+04,1.49183359e+04,1.70233936e+03
1.65591037e+00,1.63683613e+04,2.29285801e+04,1.61886484e+04,2.00362915e+03
1.72411728e+00,1.79735156e+04,2.51794492e+04,1.78993281e+04,2.26162012e+03
1.79407966e+00,1.91791719e+04,2.68676992e+04,1.90554727e+04,2.33288940e+03
1.86584306e+00,1.88707246e+04,2.64329062e+04,1.86048516e+04,2.15787183e+03
1.93945324e+00,1.70025449e+04,2.38132305e+04,1.66071934e+04,1.82125781e+03
2.01495814e+00,1.42708662e+04,1.99851875e+04,1.38157949e+04,1.46270850e+03
2.09240627e+00,1.17223984e+04,1.64165117e+04,1.13502520e+04,1.24454590e+03
2.17184782e+00,1.09131514e+04,1.52859902e+04,1.06841826e+04,1.27530322e+03
2.25333428e+00,1.17527734e+04,1.64645840e+04,1.16115176e+04,1.50155652e+03
2.33691788e+00,1.31583652e+04,1.84371387e+04,1.31860332e+04,1.85723010e+03
2.42265272e+00,1.55037812e+04,2.17252812e+04,1.56367793e+04,2.28168506e+03
2.51059437e+00,1.92016641e+04,2.69093164e+04,1.95601016e+04,3.08406006e+03
2.60079956e+00,2.44195703e+04,3.42237227e+04,2.50716797e+04,4.06936694e+03
2.69332647e+00,2.77886133e+04,3.89431328e+04,2.84581191e+04,4.54061719e+03
2.78823495e+00,2.68561387e+04,3.76333828e+04,2.73705430e+04,4.21938477e+03
2.88558602e+00,2.34048340e+04,3.27965312e+04,2.38344414e+04,3.59486499e+03
2.98544264e+00,2.09007559e+04,2.92873574e+04,2.12260566e+04,3.06676587e+03
3.08786964e+00,1.93590059e+04,2.71245254e+04,1.95055547e+04,2.69036475e+03
3.19293284e+00,1.82933145e+04,2.56313516e+04,1.84189531e+04,2.51853149e+03
3.30070019e+00,1.83979355e+04,2.57780469e+04,1.85184805e+04,2.53326514e+03
3.41124129e+00,1.98434531e+04,2.78048301e+04,2.00002129e+04,2.77277124e+03
3.52462745e+00,2.35600898e+04,3.30115898e+04,2.36311348e+04,3.13093115e+03
3.64093208e+00,2.34858672e+04,3.29037891e+04,2.33867422e+04,2.99994531e+03
3.76023054e+00,2.26395273e+04,3.17166055e+04,2.24743398e+04,2.89797754e+03
3.88259912e+00,2.21277539e+04,3.09971562e+04,2.18529297e+04,2.80805859e+03
4.00811720e+00,1.96881621e+04,2.75780566e+04,1.93797656e+04,2.48992578e+03
4.13686609e+00,1.62318467e+04,2.27354199e+04,1.59348848e+04,2.03754980e+03
4.26892853e+00,1.30143486e+04,1.82289707e+04,1.27941240e+04,1.68545923e+03
4.40439081e+00,1.16242090e+04,1.62852070e+04,1.15765098e+04,1.64627368e+03
4.54333878e+00,1.26706523e+04,1.77533008e+04,1.27131777e+04,1.84250952e+03
4.68586397e+00,1.35610039e+04,1.90001719e+04,1.35994375e+04,1.96710815e+03
4.83205652e+00,1.31997188e+04,1.84959531e+04,1.33362109e+04,2.03332410e+03
4.98201227e+00,1.39814727e+04,1.95944316e+04,1.42531934e+04,2.25722119e+03
5.13582754e+00,1.60894668e+04,2.25484668e+04,1.63897168e+04,2.54358545e+03
5.29360199e+00,1.66693633e+04,2.33597969e+04,1.69371074e+04,2.60548096e+03
5.45543718e+00,1.65457266e+04,2.31864727e+04,1.68239277e+04,2.61998022e+03
5.62143755e+00,1.69379688e+04,2.37348887e+04,1.71718535e+04,2.63071216e+03
5.79171038e+00,1.68483594e+04,2.36074688e+04,1.69956738e+04,2.52823926e+03
5.96636629e+00,1.68030098e+04,2.35416016e+04,1.68410566e+04,2.42004395e+03
6.14551687e+00,1.67175723e+04,2.34193164e+04,1.66394961e+04,2.32139014e+03
6.32927942e+00,1.59253730e+04,2.23078066e+04,1.57748945e+04,2.18104956e+03
6.51777077e+00,1.46966670e+04,2.05858320e+04,1.45198086e+04,2.02585229e+03
6.71111441e+00,1.32845684e+04,1.86075371e+04,1.31077539e+04,1.86693494e+03
6.90943432e+00,1.17463096e+04,1.64529102e+04,1.15881006e+04,1.70007166e+03
7.11285782e+00,1.03221504e+04,1.44584443e+04,1.01982256e+04,1.55837769e+03
7.32151794e+00,9.36949414e+03,1.31246572e+04,9.28581738e+03,1.48072913e+03
7.53554821e+00,8.92843750e+03,1.25075010e+04,8.88019238e+03,1.46438000e+03
7.75508738e+00,8.71784863e+03,1.22132070e+04,8.70378516e+03,1.47518188e+03
7.98027754e+00,8.66674219e+03,1.21423037e+04,8.68457227e+03,1.50096558e+03
8.21126270e+00,8.72773047e+03,1.22282314e+04,8.76865625e+03,1.52779663e+03
8.44819450e+00,8.89912109e+03,1.24686504e+04,8.95668066e+03,1.55889905e+03
8.69122219e+00,9.41555273e+03,1.31921758e+04,9.47809473e+03,1.62043958e+03
8.94050789e+00,9.95265332e+03,1.39445381e+04,1.00122129e+04,1.67473120e+03
9.19620800e+00,1.04595996e+04,1.46543018e+04,1.05003994e+04,1.71097876e+03
9.45849037e+00,1.05765469e+04,1.48173682e+04,1.05798730e+04,1.68272681e+03
9.72752285e+00,9.82823145e+03,1.37686865e+04,9.81208789e+03,1.55781995e+03
1.00034800e+01,9.43586816e+03,1.32185684e+04,9.40155176e+03,1.48508472e+03
1.02865391e+01,9.56816895e+03,1.34028320e+04,9.49301758e+03,1.47812402e+03
1.05768833e+01,9.68425977e+03,1.35652637e+04,9.60936523e+03,1.51149463e+03
1.08747025e+01,1.01505010e+04,1.42186611e+04,1.00920664e+04,1.60243945e+03
1.11801853e+01,1.04310889e+04,1.46115654e+04,1.03735938e+04,1.65860559e+03
1.14935322e+01,1.01234668e+04,1.41812021e+04,1.01037217e+04,1.66107947e+03
1.18149433e+01,1.00034961e+04,1.40141172e+04,1.00441641e+04,1.69423914e+03
1.21446266e+01,1.02142246e+04,1.43104922e+04,1.03276514e+04,1.77269324e+03
1.24827967e+01,1.05991748e+04,1.48507559e+04,1.07841631e+04,1.86021448e+03
1.28296700e+01,1.08809141e+04,1.52462285e+04,1.11236436e+04,1.91456262e+03
1.31854706e+01,1.08715342e+04,1.52342930e+04,1.11272666e+04,1.92482544e+03
1.35504293e+01,1.13786729e+04,1.59454004e+04,1.16438447e+04,2.02551099e+03
1.39247818e+01,1.21493359e+04,1.70254102e+04,1.25238906e+04,2.12978882e+03
1.43087692e+01,1.28580293e+04,1.80191836e+04,1.33359766e+04,2.14847900e+03
1.47026405e+01,1.19276670e+04,1.67150273e+04,1.24703066e+04,1.92493774e+03
1.51066484e+01,9.94855371e+03,1.39424443e+04,1.06148848e+04,1.61497217e+03
1.55210552e+01,8.89038965e+03,1.24598672e+04,9.60993555e+03,1.48078076e+03
1.59461288e+01,7.53369971e+03,1.05627246e+04,8.53642480e+03,1.34946106e+03
1.63821430e+01,6.82596338e+03,9.57909570e+03,8.35189062e+03,1.32121204e+03
1.68293781e+01,7.10994678e+03,9.98549805e+03,9.10341797e+03,1.39615710e+03
1.72881241e+01,7.96849170e+03,1.11977949e+04,1.02669756e+04,1.51658667e+03
1.77586803e+01,9.67043359e+03,1.35913984e+04,1.21226533e+04,1.70688928e+03
1.82413464e+01,1.12419512e+04,1.58006162e+04,1.35431553e+04,1.86556042e+03
1.87364349e+01,1.27178027e+04,1.78647344e+04,1.47827832e+04,2.07195923e+03
1.92442665e+01,1.52333584e+04,2.13870684e+04,1.72654453e+04,2.27665918e+03
1.97651691e+01,1.85903516e+04,2.60972227e+04,2.01897480e+04,2.43908008e+03
2.02994785e+01,2.12593281e+04,2.98288359e+04,2.20046973e+04,2.50432861e+03
2.08475418e+01,2.37252266e+04,3.32598711e+04,2.31994590e+04,2.56384302e+03
2.14097099e+01,2.55122070e+04,3.57348984e+04,2.35491875e+04,2.70056738e+03
2.19863453e+01,2.76992773e+04,3.87610508e+04,2.49461270e+04,3.06076685e+03
2.25778236e+01,2.81796309e+04,3.94159805e+04,2.56992422e+04,3.15715308e+03
2.31845264e+01,2.89193516e+04,4.04525195e+04,2.63820957e+04,3.15437988e+03
2.38068466e+01,3.06462324e+04,4.28633984e+04,2.77612461e+04,2.94999878e+03
2.44451809e+01,2.97381367e+04,4.15888203e+04,2.68309258e+04,2.84461621e+03
2.50999470e+01,2.79947754e+04,3.91629727e+04,2.58419609e+04,3.06840479e+03
2.57715645e+01,2.76231172e+04,3.86528359e+04,2.57213965e+04,2.82298340e+03
2.64604683e+01,2.51034062e+04,3.51151211e+04,2.26499883e+04,2.07000903e+03
2.71671047e+01,1.55330293e+04,2.17172695e+04,1.35820703e+04,1.23695605e+03
2.78919277e+01,1.39377568e+04,1.94865840e+04,1.22002217e+04,1.00374982e+03
2.86354065e+01,1.24217588e+04,1.73621211e+04,1.05938760e+04,8.31582214e+02
2.93980217e+01,9.81709570e+03,1.37293584e+04,8.75873535e+03,8.00381592e+02
3.01802654e+01,9.33233691e+03,1.30537197e+04,8.41827539e+03,7.49215698e+02
3.09826431e+01,1.06255244e+04,1.48642646e+04,9.61133887e+03,8.54930298e+02
3.18056717e+01,7.43084326e+03,1.03972139e+04,6.89242041e+03,7.22294312e+02
3.26498833e+01,6.30353418e+03,8.81902246e+03,5.79475684e+03,4.71875275e+02
3.35158234e+01,3.12043872e+03,4.36250049e+03,2.71462598e+03,1.37953217e+02
3.44040565e+01,6.94566223e+02,9.68195312e+02,5.02030914e+02,8.27808762e+00
3.53151436e+01,1.33089188e+02,1.84066879e+02,5.75262375e+01,1.67238787e-02
3.62496834e+01,5.70675812e+01,7.86032639e+01,1.79109364e+01,1.81639998e-03
3.72082787e+01,3.35247688e+01,4.61323586e+01,9.77691364e+00,8.03379517e-04
3.81915474e+01,1.43458748e+01,1.96844139e+01,3.38648796e+00,2.47756339e-04
3.92001228e+01,5.33192492e+00,7.30402184e+00,9.47936654e-01,1.47670726e-05
4.02346535e+01,1.80937529e+00,2.46201730e+00,1.96402162e-01,1.85901240e-06
4.12958107e+01,5.78714788e-01,7.85089195e-01,5.09131290e-02,6.47252477e-07
4.23842850e+01,2.17189565e-01,2.93971956e-01,1.44602964e-02,2.33611118e-07
4.35007744e+01,5.01124300e-02,6.77679479e-02,3.27562029e-03,8.42010621e-08
4.46459999e+01,3.02814436e-03,4.05445229e-03,1.08155975e-04,1.40492418e-08
4.58207016e+01,4.60539377e-05,6.06974463e-05,1.29607361e-06,2.44989667e-10
4.70256386e+01,2.80941777e-06,3.66187896e-06,8.81719942e-08,2.14685019e-12
4.82615852e+01,8.58412577e-08,1.11377403e-07,6.39283337e-09,1.69059929e-13
4.95293465e+01,6.01932593e-09,7.93977062e-09,8.31630875e-10,1.35658273e-14
5.08297386e+01,3.82756854e-10,5.11535314e-10,3.84249264e-11,8.93703616e-16
5.21635971e+01,2.35376978e-11,3.19369496e-11,1.85804475e-12,3.09882636e-17
5.35317917e+01,1.03431489e-12,1.42491574e-12,7.16817895e-14,1.15325231e-18
5.49351997e+01,4.12916060e-14,5.59519506e-14,2.85525828e-15,3.01833165e-20
5.63747253e+01,1.37238756e-15,2.03338750e-15,2.97339567e-17,9.32844454e-22
5.78513031e+01,2.37527659e-17,3.11344132e-17,3.13758085e-18,1.58015592e-23
5.93278885e+01,2.63143627e-18,3.58291256e-18,3.51901987e-20,2.31145268e-25
6.08044662e+01,1.43676991e-20,1.67767609e-20,2.47662843e-21,5.07018807e-26
6.22810478e+01,3.30029333e-21,4.53259069e-21,1.27292464e-22,9.25363501e-28
6.37576256e+01,2.44430066e-23,3.39007136e-23,3.57346733e-24,7.19337723e-29
6.52341995e+01,5.31593090e-24,7.71645357e-24,7.11002257e-25,7.94430379e-30
6.67107849e+01,1.22443563e-25,1.89062460e-25,1.58352641e-26,1.80574482e-31
6.81873703e+01,1.22514975e-26,1.68929278e-26,4.86237877e-27,1.86232159e-32
6.96639481e+01,8.08710887e-28,1.10209752e-27,2.28225371e-28,1.71698399e-33
7.11405258e+01,3.36618670e-29,4.10062173e-29,1.13891462e-29,4.69024628e-35
7.26171036e+01,3.02420880e-30,4.01792546e-30,8.39791220e-31,2.99332365e-36
7.40936813e+01,1.53193445e-31,2.05262096e-31,3.87475176e-32,1.67690585e-37
7.55702591e+01,9.23503553e-33,1.33920339e-32,2.33444674e-33,9.05659197e-39
7.70468445e+01,4.20601154e-34,6.31153085e-34,1.02006943e-34,3.64337601e-40
7.85234222e+01,1.40475334e-35,2.18424500e-35,3.35621646e-36,1.40129846e-42
8.00000000e+01,5.36575433e-37,9.37840050e-37,1.56215352e-37,0.00000000e+00
