Height (km), 7_8 um ash conc (g/kg), 15_6 um ash conc (g/kg), 125 um ash conc (g/kg), 1 mm ash conc (g/kg)
0.00000000e+00,0.00000000e+00,0.00000000e+00,0.00000000e+00,0.00000000e+00
3.99999991e-02,1.15946805e-05,1.78220671e-05,5.96328080e-03,4.18447828e+00
7.99999982e-02,1.78224673e-05,2.79302039e-05,7.95918331e-03,4.06498766e+00
1.19999997e-01,2.48519209e-05,3.91469403e-05,9.44510102e-03,3.93647838e+00
1.59999996e-01,3.19194369e-05,5.03579395e-05,1.04848528e-02,3.79151535e+00
2.00000003e-01,3.90555288e-05,6.16568432e-05,1.12220254e-02,3.64957929e+00
2.39999995e-01,4.64571167e-05,7.33429479e-05,1.17799714e-02,3.51712728e+00
2.80000001e-01,5.40157926e-05,8.52232188e-05,1.20822070e-02,3.39899898e+00
3.19999993e-01,6.15251483e-05,9.69653265e-05,1.22626247e-02,3.29906845e+00
3.60000014e-01,6.91286768e-05,1.08784501e-04,1.23532964e-02,3.21389151e+00
4.00000006e-01,7.67335514e-05,1.20612713e-04,1.23542994e-02,3.14692163e+00
4.39999998e-01,8.44222595e-05,1.32610701e-04,1.23585081e-02,3.09175253e+00
4.79999989e-01,9.19162558e-05,1.44262856e-04,1.23457238e-02,3.05258155e+00
5.19999981e-01,9.93648428e-05,1.55966060e-04,1.23578440e-02,3.02271414e+00
5.60000002e-01,1.06904714e-04,1.67833176e-04,1.23764668e-02,3.00478649e+00
6.00000024e-01,1.15166280e-04,1.81022639e-04,1.24695180e-02,2.99767089e+00
6.41029537e-01,1.24155806e-04,1.95449800e-04,1.26144486e-02,2.99381614e+00
6.83115125e-01,1.34397196e-04,2.11829305e-04,1.28755476e-02,3.00164986e+00
7.26283848e-01,1.46025472e-04,2.30530903e-04,1.32618723e-02,3.01487303e+00
7.70563781e-01,1.59015224e-04,2.51295161e-04,1.37734804e-02,3.03632498e+00
8.15983355e-01,1.73741413e-04,2.75161961e-04,1.44574372e-02,3.06445146e+00
8.62571895e-01,1.90076331e-04,3.01638647e-04,1.53622292e-02,3.09959388e+00
9.10359621e-01,2.07784149e-04,3.30421841e-04,1.63898785e-02,3.14206672e+00
9.59377348e-01,2.25987751e-04,3.59981845e-04,1.76036377e-02,3.19206452e+00
1.00965667e+00,2.46427924e-04,3.93131806e-04,1.90189369e-02,3.25080872e+00
1.06123006e+00,2.77906540e-04,4.42394317e-04,2.03915574e-02,3.31797028e+00
1.11413085e+00,3.20683263e-04,5.05808857e-04,2.15782095e-02,3.39339018e+00
1.16839325e+00,3.40929662e-04,5.35622879e-04,2.26910636e-02,3.47899127e+00
1.22405231e+00,3.54756543e-04,5.58080268e-04,2.38241646e-02,3.57769227e+00
1.28114390e+00,3.69230052e-04,5.82069042e-04,2.49845348e-02,3.70063043e+00
1.33970511e+00,3.90095025e-04,6.15009689e-04,2.63049863e-02,3.84591460e+00
1.39977336e+00,2.01539297e+04,2.82325273e+04,2.00165508e+04,2.16609668e+03
1.46138775e+00,2.56108203e+04,3.58573672e+04,2.42366836e+04,2.12585449e+03
1.52458799e+00,1.70582441e+04,2.38824141e+04,1.62141611e+04,1.56318323e+03
1.58941495e+00,1.65625957e+04,2.31956836e+04,1.61026895e+04,1.80055481e+03
1.65591037e+00,1.66844277e+04,2.33692207e+04,1.63726045e+04,1.93039929e+03
1.72411728e+00,1.66831719e+04,2.33687227e+04,1.64390449e+04,1.98517395e+03
1.79407966e+00,1.63751270e+04,2.29377402e+04,1.61627441e+04,1.97601392e+03
1.86584306e+00,1.58307969e+04,2.21756523e+04,1.56436289e+04,1.93726025e+03
1.93945324e+00,1.53519404e+04,2.15056328e+04,1.52053203e+04,1.92461157e+03
2.01495814e+00,1.53329355e+04,2.14802930e+04,1.52480176e+04,1.99406299e+03
2.09240627e+00,1.60099648e+04,2.24303887e+04,1.60040469e+04,2.16975659e+03
2.17184782e+00,1.72153438e+04,2.41206641e+04,1.72924082e+04,2.41493848e+03
2.25333428e+00,1.88372617e+04,2.63941133e+04,1.89839629e+04,2.70049609e+03
2.33691788e+00,2.05019082e+04,2.87266758e+04,2.06888320e+04,2.95284912e+03
2.42265272e+00,2.14000312e+04,2.99841426e+04,2.15616406e+04,3.03340527e+03
2.51059437e+00,2.10466191e+04,2.94872891e+04,2.11210801e+04,2.89792017e+03
2.60079956e+00,1.95614688e+04,2.74053516e+04,1.95659922e+04,2.63870850e+03
2.69332647e+00,1.80065938e+04,2.52269727e+04,1.79980312e+04,2.42204810e+03
2.78823495e+00,1.68035352e+04,2.35415312e+04,1.67803906e+04,2.24820923e+03
2.88558602e+00,1.58225332e+04,2.21677363e+04,1.58138145e+04,2.13668384e+03
2.98544264e+00,1.62068184e+04,2.27073770e+04,1.62498438e+04,2.24766846e+03
3.08786964e+00,1.82315938e+04,2.55460117e+04,1.83640254e+04,2.59953174e+03
3.19293284e+00,1.98472812e+04,2.78082422e+04,1.99166289e+04,2.74816553e+03
3.30070019e+00,2.02002109e+04,2.83017383e+04,2.02396445e+04,2.78024536e+03
3.41124129e+00,2.11687578e+04,2.96582617e+04,2.11972656e+04,2.89926221e+03
3.52462745e+00,2.13114785e+04,2.98570723e+04,2.12802070e+04,2.87383789e+03
3.64093208e+00,1.96827520e+04,2.75745234e+04,1.96100352e+04,2.62368750e+03
3.76023054e+00,1.73240898e+04,2.42705781e+04,1.72689004e+04,2.32782935e+03
3.88259912e+00,1.62365801e+04,2.27484961e+04,1.62449287e+04,2.23890088e+03
4.00811720e+00,1.65441543e+04,2.31801074e+04,1.65873223e+04,2.30696387e+03
4.13686609e+00,1.70489863e+04,2.38875176e+04,1.71118398e+04,2.39391455e+03
4.26892853e+00,1.83052148e+04,2.56480625e+04,1.83939844e+04,2.57635156e+03
4.40439081e+00,2.05739570e+04,2.88253633e+04,2.05993770e+04,2.81343994e+03
4.54333878e+00,2.04113105e+04,2.85948945e+04,2.03291797e+04,2.72937866e+03
4.68586397e+00,1.84561094e+04,2.58562148e+04,1.84099746e+04,2.53938281e+03
4.83205652e+00,1.81693066e+04,2.54556758e+04,1.81739961e+04,2.55296680e+03
4.98201227e+00,1.79515469e+04,2.51506855e+04,1.79513359e+04,2.50339893e+03
5.13582754e+00,1.69024531e+04,2.36802480e+04,1.68730820e+04,2.32574170e+03
5.29360199e+00,1.64436055e+04,2.30381191e+04,1.64448281e+04,2.28868066e+03
5.45543718e+00,1.74998301e+04,2.45184453e+04,1.75282324e+04,2.44145508e+03
5.62143755e+00,1.79179844e+04,2.51029688e+04,1.79030234e+04,2.45554517e+03
5.79171038e+00,1.65830117e+04,2.32323750e+04,1.65631621e+04,2.28116553e+03
5.96636629e+00,1.57846787e+04,2.21147539e+04,1.57935557e+04,2.20040186e+03
6.14551687e+00,1.60629668e+04,2.25043359e+04,1.60507402e+04,2.22203149e+03
6.32927942e+00,1.59437031e+04,2.23358516e+04,1.58718809e+04,2.17196338e+03
6.51777077e+00,1.47261309e+04,2.06296680e+04,1.46464082e+04,2.02937793e+03
6.71111441e+00,1.40565146e+04,1.96911719e+04,1.39666172e+04,1.94462927e+03
6.90943432e+00,1.38940508e+04,1.94622246e+04,1.37569277e+04,1.89660791e+03
7.11285782e+00,1.38152939e+04,1.93521797e+04,1.36999180e+04,1.91358691e+03
7.32151794e+00,1.49954756e+04,2.10059355e+04,1.48934336e+04,2.07969067e+03
7.53554821e+00,1.60300068e+04,2.24539355e+04,1.58684883e+04,2.17967749e+03
7.75508738e+00,1.51109844e+04,2.11657715e+04,1.49219727e+04,2.05982764e+03
7.98027754e+00,1.27582344e+04,1.78700684e+04,1.25909893e+04,1.78719727e+03
8.21126270e+00,1.02072773e+04,1.42973740e+04,1.00910527e+04,1.50782812e+03
8.44819450e+00,8.04730762e+03,1.12722334e+04,7.96897852e+03,1.27078809e+03
8.69122219e+00,6.20311279e+03,8.68991406e+03,6.17871973e+03,1.10148438e+03
8.94050789e+00,6.10325293e+03,8.55057129e+03,6.09870020e+03,1.14576001e+03
9.19620800e+00,6.41810449e+03,8.99131445e+03,6.39992578e+03,1.23195264e+03
9.45849037e+00,6.60395020e+03,9.25267969e+03,6.62640674e+03,1.35408813e+03
9.72752285e+00,7.98734131e+03,1.11914346e+04,8.03198145e+03,1.62214417e+03
1.00034800e+01,1.02191133e+04,1.43178564e+04,1.02488896e+04,1.97810327e+03
1.02865391e+01,1.26718096e+04,1.77529316e+04,1.26580283e+04,2.34065015e+03
1.05768833e+01,1.46606016e+04,2.05381523e+04,1.46223945e+04,2.67241162e+03
1.08747025e+01,1.67939609e+04,2.35259883e+04,1.67271836e+04,2.99625049e+03
1.11801853e+01,1.68382109e+04,2.35874062e+04,1.67631875e+04,3.08388086e+03
1.14935322e+01,1.70769043e+04,2.39224336e+04,1.70377305e+04,3.19860083e+03
1.18149433e+01,1.31900664e+04,1.84749180e+04,1.30822227e+04,2.73356226e+03
1.21446266e+01,7.92285156e+03,1.10986738e+04,7.95003223e+03,2.25412061e+03
1.24827967e+01,7.47616113e+03,1.04764385e+04,7.65891895e+03,2.31995630e+03
1.28296700e+01,8.20168750e+03,1.14936445e+04,8.42841797e+03,2.38061719e+03
1.31854706e+01,8.06078320e+03,1.12966035e+04,8.32802930e+03,2.36462866e+03
1.35504293e+01,8.67137305e+03,1.21531387e+04,9.03162598e+03,2.51872510e+03
1.39247818e+01,9.84914648e+03,1.38036055e+04,1.02785400e+04,2.73803735e+03
1.43087692e+01,1.12516914e+04,1.57683516e+04,1.17282109e+04,2.96393555e+03
1.47026405e+01,1.35431104e+04,1.89775430e+04,1.40424502e+04,3.23364648e+03
1.51066484e+01,1.55778887e+04,2.18258477e+04,1.61019336e+04,3.40028516e+03
1.55210552e+01,1.55480713e+04,2.17833301e+04,1.62788594e+04,3.41050610e+03
1.59461288e+01,1.29349795e+04,1.81306953e+04,1.45755332e+04,3.28050537e+03
1.63821430e+01,1.13058164e+04,1.58653223e+04,1.43281641e+04,3.20516089e+03
1.68293781e+01,1.26435361e+04,1.77504727e+04,1.66582891e+04,3.28956543e+03
1.72881241e+01,1.48471719e+04,2.08457227e+04,2.03157734e+04,3.41162207e+03
1.77586803e+01,1.77840078e+04,2.49818047e+04,2.53842969e+04,3.55324463e+03
1.82413464e+01,2.17056445e+04,3.05106152e+04,3.06065156e+04,3.71431299e+03
1.87364349e+01,2.53652305e+04,3.56658086e+04,3.40063672e+04,3.75580469e+03
1.92442665e+01,2.87046953e+04,4.03609922e+04,3.58595430e+04,3.76910815e+03
1.97651691e+01,3.20165312e+04,4.49961250e+04,3.63407734e+04,3.76087866e+03
2.02994785e+01,3.52639648e+04,4.94853047e+04,3.57067422e+04,3.75079150e+03
2.08475418e+01,3.67205703e+04,5.14387344e+04,3.39117344e+04,3.71935791e+03
2.14097099e+01,3.54979844e+04,4.96536758e+04,3.07406523e+04,3.57610107e+03
2.19863453e+01,3.51459453e+04,4.91237969e+04,2.99257773e+04,3.70269019e+03
2.25778236e+01,3.44097578e+04,4.80769922e+04,2.89486543e+04,3.75443848e+03
2.31845264e+01,3.19245996e+04,4.45871172e+04,2.71366543e+04,3.72150977e+03
2.38068466e+01,2.80210742e+04,3.91496172e+04,2.51661484e+04,3.71136987e+03
2.44451809e+01,2.75775762e+04,3.85514258e+04,2.54464434e+04,3.84357300e+03
2.50999470e+01,2.90810078e+04,4.06624258e+04,2.71015547e+04,3.92621313e+03
2.57715645e+01,3.15752344e+04,4.41708672e+04,3.00036602e+04,4.21019775e+03
2.64604683e+01,3.40563516e+04,4.76612188e+04,3.27964258e+04,4.20993945e+03
2.71671047e+01,3.20910859e+04,4.49096445e+04,3.05557910e+04,3.68323096e+03
2.78919277e+01,2.97917617e+04,4.17008203e+04,2.86718535e+04,3.54273242e+03
2.86354065e+01,2.93601895e+04,4.10999453e+04,2.81479141e+04,3.09785938e+03
2.93980217e+01,2.33556094e+04,3.26785352e+04,2.14176523e+04,1.65750574e+03
3.01802654e+01,1.08191611e+04,1.51215918e+04,9.12771289e+03,3.71885468e+02
3.09826431e+01,2.96877002e+03,4.13836426e+03,2.06301880e+03,2.01335907e+01
3.18056717e+01,7.80981079e+02,1.08232446e+03,3.40729858e+02,1.70880556e-01
3.26498833e+01,2.35825592e+02,3.24632721e+02,6.24345551e+01,9.14670713e-03
3.35158234e+01,1.02555542e+02,1.40721924e+02,2.32581596e+01,1.34245781e-02
3.44040565e+01,7.03533630e+01,9.67528305e+01,1.83246746e+01,6.96479157e-03
3.53151436e+01,2.96153774e+01,4.05949707e+01,5.76539516e+00,3.94247589e-04
3.62496834e+01,6.66647720e+00,9.04696465e+00,7.49029100e-01,9.13839540e-06
3.72082787e+01,1.69937682e+00,2.28431153e+00,1.03491694e-01,4.67970312e-06
3.81915474e+01,5.60723841e-01,7.48944819e-01,1.76156722e-02,2.06035656e-06
3.92001228e+01,1.73043624e-01,2.30057821e-01,3.76706151e-03,7.04847082e-07
4.02346535e+01,7.04878196e-02,9.35133025e-02,1.04598212e-03,3.41388500e-07
4.12958107e+01,2.23617051e-02,2.96305697e-02,2.43335366e-04,9.71620366e-08
4.23842850e+01,7.26974383e-03,9.61385481e-03,6.31387811e-05,2.82166592e-08
4.35007744e+01,2.56804656e-03,3.38696688e-03,2.75869370e-05,1.46918664e-08
4.46459999e+01,7.78376823e-04,1.02722016e-03,1.11000318e-05,5.53499868e-09
4.58207016e+01,2.49314966e-04,3.30113224e-04,4.23772326e-06,2.38036657e-09
4.70256386e+01,7.61458068e-05,1.00906807e-04,1.42479519e-06,8.06880673e-10
4.82615852e+01,1.10729661e-05,1.46438097e-05,3.08089199e-07,1.33254019e-10
4.95293465e+01,2.27202520e-07,2.97347157e-07,1.21036070e-08,1.40512168e-12
5.08297386e+01,2.02120010e-08,2.71789862e-08,1.10212162e-09,2.25714399e-13
5.21635971e+01,1.21884245e-08,1.61833107e-08,4.55805615e-10,1.53808823e-13
5.35317917e+01,1.18922414e-10,1.58333707e-10,5.13426671e-12,1.70114963e-15
5.49351997e+01,1.10465179e-11,1.46634198e-11,3.55968944e-13,4.87209943e-17
5.63747253e+01,4.37810798e-14,5.81309632e-14,2.62020621e-15,3.59818086e-19
5.78513031e+01,6.75163080e-16,8.41685840e-16,9.39221565e-17,2.37346087e-19
5.93278885e+01,1.47930996e-16,2.49849679e-16,2.99963980e-18,1.00930747e-21
6.08044662e+01,3.52139265e-18,3.70224701e-18,2.76566080e-18,3.16399664e-22
6.22810478e+01,4.53242781e-18,4.69113068e-18,8.90009504e-21,1.67855519e-24
6.37576256e+01,2.67002471e-21,1.75831246e-20,2.45482709e-21,1.48825340e-25
6.52341995e+01,4.12732631e-21,4.33009744e-21,2.29449771e-23,3.27569638e-27
6.67107849e+01,4.39215427e-24,4.96115949e-23,2.90135014e-24,2.58589751e-28
6.81873703e+01,4.61316864e-24,4.68683879e-24,3.94463517e-26,8.62808340e-30
6.96639481e+01,2.07593169e-26,5.02881016e-26,2.88803537e-27,8.15615439e-31
7.11405258e+01,3.45978061e-27,4.23771379e-27,4.18067662e-29,1.40644196e-32
7.26171036e+01,7.94164676e-29,9.03494843e-29,3.74665860e-30,1.37122481e-33
7.40936813e+01,5.82301684e-30,6.75334031e-30,1.18709789e-31,5.42108952e-35
7.55702591e+01,2.22301968e-31,2.63041593e-31,7.40301069e-33,2.62015352e-36
7.70468445e+01,8.87590364e-33,1.03873506e-32,2.79980048e-34,1.01511462e-37
7.85234222e+01,2.42701747e-34,2.79957457e-34,7.52037362e-36,2.71431513e-39
8.00000000e+01,1.27704102e-35,1.62162359e-35,4.53011768e-37,1.77964905e-40
