Height (km), 7_8 um ash conc (g/kg), 15_6 um ash conc (g/kg), 125 um ash conc (g/kg), 1 mm ash conc (g/kg)
0.00000000e+00,0.00000000e+00,0.00000000e+00,0.00000000e+00,0.00000000e+00
3.99999991e-02,2.35890543e-11,3.62255469e-11,2.18966529e-01,5.25218735e+01
7.99999982e-02,5.50444190e-10,8.33522029e-10,2.49602363e-01,5.57346230e+01
1.19999997e-01,4.81882978e-09,7.57264473e-09,2.71967620e-01,5.54449310e+01
1.59999996e-01,2.20805294e-08,3.69333861e-08,3.19180489e-01,5.87228394e+01
2.00000003e-01,9.54143715e-08,1.64325556e-07,3.63973200e-01,6.17753983e+01
2.39999995e-01,3.11671272e-07,5.52881659e-07,4.55235660e-01,6.59224396e+01
2.80000001e-01,9.05518050e-07,1.67184282e-06,5.28660357e-01,6.50955048e+01
3.19999993e-01,1.72922489e-06,3.28334204e-06,6.71875060e-01,7.06242142e+01
3.60000014e-01,3.84592840e-06,7.36760830e-06,8.07003736e-01,6.86608582e+01
4.00000006e-01,8.00954513e-06,1.64419471e-05,1.00215602e+00,7.60745926e+01
4.39999998e-01,1.58169623e-05,3.29029972e-05,1.17366111e+00,7.43663712e+01
4.79999989e-01,2.51374295e-05,5.30798789e-05,1.38442588e+00,7.57712326e+01
5.19999981e-01,4.38401039e-05,9.12242031e-05,1.55075216e+00,7.42123566e+01
5.60000002e-01,7.27461666e-05,1.49389540e-04,1.72664225e+00,7.75702362e+01
6.00000024e-01,9.72843191e-05,2.00079143e-04,1.84015715e+00,8.94792023e+01
6.41029537e-01,1.37427734e-04,2.87482340e-04,1.93429482e+00,7.79081116e+01
6.83115125e-01,2.04970711e-04,4.25218692e-04,2.09410334e+00,1.01392380e+02
7.26283848e-01,3.41720239e-04,7.06733670e-04,2.24716091e+00,8.83365479e+01
7.70563781e-01,5.61442226e-04,1.13591645e-03,2.52921653e+00,1.01464310e+02
8.15983355e-01,9.33739939e-04,1.85491389e-03,2.91166162e+00,9.31298523e+01
8.62571895e-01,1.35493279e-03,2.64696497e-03,3.38050556e+00,1.06762955e+02
9.10359621e-01,1.97678967e-03,3.81346280e-03,3.98422599e+00,1.00069649e+02
9.59377348e-01,2.76796799e-03,5.22164768e-03,4.58791590e+00,1.18903458e+02
1.00965667e+00,3.90050001e-03,7.19664572e-03,5.26423597e+00,1.06658051e+02
1.06123006e+00,5.50912460e-03,9.99333989e-03,5.83843756e+00,1.21793503e+02
1.11413085e+00,7.77399773e-03,1.39230518e-02,6.53399611e+00,1.20650772e+02
1.16839325e+00,1.11509934e-02,1.98073294e-02,7.05926704e+00,1.32931229e+02
1.22405231e+00,1.58939622e-02,2.80620717e-02,7.74436617e+00,1.26978210e+02
1.28114390e+00,2.28729025e-02,4.05241735e-02,8.27258110e+00,1.39359207e+02
1.33970511e+00,3.34594771e-02,5.95941097e-02,9.03238297e+00,1.34264221e+02
1.39977336e+00,2.06899316e+04,2.89686953e+04,1.95459668e+04,1.45199622e+03
1.46138775e+00,2.67231133e+04,3.73732188e+04,2.27558555e+04,1.53911658e+03
1.52458799e+00,1.72567070e+04,2.41291797e+04,1.48363203e+04,1.17426355e+03
1.58941495e+00,1.63863906e+04,2.29236719e+04,1.45613496e+04,1.31664526e+03
1.65591037e+00,1.50628398e+04,2.10736016e+04,1.34496348e+04,1.26561279e+03
1.72411728e+00,1.34862969e+04,1.88694883e+04,1.21202793e+04,1.24075854e+03
1.79407966e+00,1.25405801e+04,1.75503711e+04,1.14707539e+04,1.32010083e+03
1.86584306e+00,1.26012637e+04,1.76424531e+04,1.18664688e+04,1.57420789e+03
1.93945324e+00,1.42183105e+04,1.99157109e+04,1.38590137e+04,2.06451758e+03
2.01495814e+00,1.77225742e+04,2.48336992e+04,1.78330273e+04,2.82386499e+03
2.09240627e+00,2.23042109e+04,3.12580098e+04,2.27046699e+04,3.49643774e+03
2.17184782e+00,2.59512402e+04,3.63640312e+04,2.61940938e+04,3.82531152e+03
2.25333428e+00,2.66394375e+04,3.73222500e+04,2.66011387e+04,3.62636377e+03
2.33691788e+00,2.46213574e+04,3.44872344e+04,2.41413320e+04,2.99801196e+03
2.42265272e+00,2.06411719e+04,2.89063828e+04,1.99470176e+04,2.30542993e+03
2.51059437e+00,1.82973418e+04,2.56249629e+04,1.76293418e+04,1.94113818e+03
2.60079956e+00,1.81971270e+04,2.54796680e+04,1.71377324e+04,1.75882129e+03
2.69332647e+00,1.67421875e+04,2.34377852e+04,1.55327520e+04,1.66094910e+03
2.78823495e+00,1.65530156e+04,2.31818926e+04,1.57513555e+04,1.90617529e+03
2.88558602e+00,1.90849609e+04,2.67314102e+04,1.82327383e+04,2.17633301e+03
2.98544264e+00,1.75767402e+04,2.46121758e+04,1.66294844e+04,2.23207202e+03
3.08786964e+00,1.81799590e+04,2.54659062e+04,1.77540898e+04,2.78425269e+03
3.19293284e+00,2.32863809e+04,3.26286250e+04,2.31816953e+04,3.73353979e+03
3.30070019e+00,3.02224199e+04,4.23443125e+04,2.98229668e+04,4.19583594e+03
3.41124129e+00,2.80894062e+04,3.93421133e+04,2.71415742e+04,3.28341431e+03
3.52462745e+00,2.09395430e+04,2.93204512e+04,1.98334277e+04,2.09713257e+03
3.64093208e+00,1.46732393e+04,2.05403574e+04,1.36764053e+04,1.52377319e+03
3.76023054e+00,1.45978955e+04,2.04631133e+04,1.47105098e+04,2.07148047e+03
3.88259912e+00,2.35145703e+04,3.29722461e+04,2.39062617e+04,2.97741016e+03
4.00811720e+00,2.84109160e+04,3.97958594e+04,2.72689648e+04,3.02652734e+03
4.13686609e+00,2.41070156e+04,3.37610938e+04,2.32748555e+04,3.34058179e+03
4.26892853e+00,2.62402949e+04,3.67609805e+04,2.58452520e+04,3.99585864e+03
4.40439081e+00,2.61415547e+04,3.65966875e+04,2.47195918e+04,3.14476099e+03
4.54333878e+00,1.46680732e+04,2.05197363e+04,1.34183848e+04,1.51910767e+03
4.68586397e+00,6.95678174e+03,9.73761035e+03,6.54808545e+03,8.33469238e+02
4.83205652e+00,7.37901807e+03,1.03332461e+04,7.04961377e+03,9.32059692e+02
4.98201227e+00,1.20090791e+04,1.68133574e+04,1.13230879e+04,1.41436572e+03
5.13582754e+00,1.57420693e+04,2.20379414e+04,1.47560762e+04,1.76371130e+03
5.29360199e+00,1.57164043e+04,2.20057637e+04,1.48463359e+04,1.80334216e+03
5.45543718e+00,1.56821494e+04,2.19642148e+04,1.50142812e+04,1.82337183e+03
5.62143755e+00,1.59828594e+04,2.23778828e+04,1.50398154e+04,1.67295178e+03
5.79171038e+00,1.09180635e+04,1.52728145e+04,9.87434961e+03,1.00618152e+03
5.96636629e+00,4.57601270e+03,6.39951074e+03,4.14909814e+03,5.00672546e+02
6.14551687e+00,3.31678271e+03,4.64311328e+03,3.17435669e+03,4.55033783e+02
6.32927942e+00,4.73520361e+03,6.62820898e+03,4.48285449e+03,5.78681702e+02
6.51777077e+00,5.57530518e+03,7.80356445e+03,5.26127393e+03,6.62637146e+02
6.71111441e+00,5.59986475e+03,7.84184814e+03,5.42253076e+03,7.13799500e+02
6.90943432e+00,5.44841260e+03,7.63329199e+03,5.39236133e+03,7.08132935e+02
7.11285782e+00,4.58814453e+03,6.42841992e+03,4.57311035e+03,5.84379761e+02
7.32151794e+00,3.84996924e+03,5.39221240e+03,3.80996777e+03,4.78119568e+02
7.53554821e+00,4.06788623e+03,5.69644971e+03,3.99942480e+03,4.98153320e+02
7.75508738e+00,4.70424121e+03,6.58830713e+03,4.62784961e+03,5.63202759e+02
7.98027754e+00,4.49377588e+03,6.29313379e+03,4.42907861e+03,5.27321899e+02
8.21126270e+00,3.18694263e+03,4.46414502e+03,3.24096948e+03,4.00286011e+02
8.44819450e+00,2.17495190e+03,3.04892651e+03,2.36075977e+03,3.18669891e+02
8.69122219e+00,2.03183850e+03,2.84911328e+03,2.27272583e+03,3.20197754e+02
8.94050789e+00,2.30002124e+03,3.22505591e+03,2.57752930e+03,3.57110626e+02
9.19620800e+00,2.51784473e+03,3.53097437e+03,2.85960620e+03,3.84358551e+02
9.45849037e+00,2.54568555e+03,3.57092944e+03,2.96758765e+03,3.84298767e+02
9.72752285e+00,2.55707471e+03,3.58744263e+03,3.05800439e+03,3.69925293e+02
1.00034800e+01,2.39157739e+03,3.35668921e+03,2.99676270e+03,3.43828461e+02
1.02865391e+01,1.97471960e+03,2.77443311e+03,2.72638940e+03,3.15713074e+02
1.05768833e+01,1.66071082e+03,2.33677173e+03,2.58825098e+03,3.10189819e+02
1.08747025e+01,1.60195654e+03,2.25926685e+03,2.77835693e+03,3.22302826e+02
1.11801853e+01,1.82241357e+03,2.57699707e+03,3.26647119e+03,3.27478851e+02
1.14935322e+01,2.28724609e+03,3.23698657e+03,3.78401318e+03,3.12537628e+02
1.18149433e+01,2.74822681e+03,3.88865942e+03,4.03609326e+03,2.82246124e+02
1.21446266e+01,2.85515649e+03,4.04023779e+03,3.83480615e+03,2.41314377e+02
1.24827967e+01,2.78364404e+03,3.94152148e+03,3.43089014e+03,1.96736877e+02
1.28296700e+01,2.94562109e+03,4.16556445e+03,3.15193213e+03,1.48175995e+02
1.31854706e+01,3.20481152e+03,4.51689160e+03,2.92116553e+03,9.65530777e+01
1.35504293e+01,3.33397119e+03,4.67887842e+03,2.61627197e+03,5.70251656e+01
1.39247818e+01,3.27782715e+03,4.58404492e+03,2.26491187e+03,3.69909706e+01
1.43087692e+01,3.18797217e+03,4.45255957e+03,1.89551587e+03,3.07494755e+01
1.47026405e+01,3.09752148e+03,4.32038477e+03,1.56365881e+03,2.73122196e+01
1.51066484e+01,2.99358813e+03,4.17041846e+03,1.28164124e+03,2.07101917e+01
1.55210552e+01,2.92455322e+03,4.06129346e+03,1.03661035e+03,1.46111298e+01
1.59461288e+01,2.73131738e+03,3.77527393e+03,8.21574951e+02,1.10013447e+01
1.63821430e+01,2.44867554e+03,3.36707861e+03,6.36697327e+02,8.49355316e+00
1.68293781e+01,2.01004712e+03,2.74484521e+03,4.79664124e+02,7.33765078e+00
1.72881241e+01,1.53575879e+03,2.08669287e+03,3.85221344e+02,7.01417875e+00
1.77586803e+01,1.15806592e+03,1.56818311e+03,3.16603485e+02,5.16223431e+00
1.82413464e+01,7.66210205e+02,1.02735632e+03,1.78549515e+02,1.85790110e+00
1.87364349e+01,3.90140015e+02,5.14716919e+02,6.29277267e+01,2.21490517e-01
1.92442665e+01,1.66881042e+02,2.15199554e+02,9.52545071e+00,3.67446104e-03
1.97651691e+01,6.18669319e+01,7.77282181e+01,1.09113991e-01,1.21211842e-05
2.02994785e+01,3.17294350e+01,3.93746071e+01,2.22359933e-02,7.07863273e-06
2.08475418e+01,1.51182585e+01,1.86369667e+01,6.13749027e-03,6.68763096e-06
2.14097099e+01,6.37011051e+00,7.77990484e+00,1.33902312e-03,7.23788980e-06
2.19863453e+01,4.54279709e+00,5.78490496e+00,3.96344956e-04,4.82006226e-06
2.25778236e+01,3.43721485e+00,4.42711926e+00,2.74657708e-04,4.52683116e-06
2.31845264e+01,3.05757451e+00,3.91847372e+00,2.19391906e-04,4.17630508e-06
2.38068466e+01,2.23300958e+00,2.80322146e+00,1.30912755e-04,2.97001793e-06
2.44451809e+01,1.53484237e+00,1.87967825e+00,1.58208059e-05,1.75093726e-06
2.50999470e+01,8.03245723e-01,9.59811568e-01,8.04954107e-06,7.35942649e-07
2.57715645e+01,2.84043729e-01,3.32235426e-01,6.84628867e-06,2.45357768e-07
2.64604683e+01,5.36403395e-02,5.98626733e-02,3.33213893e-06,4.43175843e-08
2.71671047e+01,1.04897507e-02,1.14745796e-02,1.07056485e-06,7.59265806e-09
2.78919277e+01,1.39584590e-03,1.50085439e-03,2.17178325e-07,8.75392758e-10
2.86354065e+01,5.74806327e-05,6.13682059e-05,2.06019894e-08,4.79854316e-11
2.93980217e+01,9.01801104e-06,9.79448669e-06,2.69393508e-09,7.45856675e-12
3.01802654e+01,1.95522193e-06,2.16608873e-06,4.45115389e-10,1.20248527e-12
3.09826431e+01,9.89941142e-08,1.11920869e-07,3.16830312e-11,6.64124382e-14
3.18056717e+01,9.56821378e-09,1.04278737e-08,2.73698880e-12,6.58792368e-15
3.26498833e+01,4.32230668e-10,5.00552322e-10,1.56660261e-13,2.22389030e-16
3.35158234e+01,1.76161793e-11,2.00233718e-11,7.35365714e-15,1.37488188e-17
3.44040565e+01,3.36532289e-13,4.24988305e-13,1.64906356e-16,1.43189379e-18
3.53151436e+01,2.93938898e-15,4.12095505e-15,2.44867175e-18,1.59508388e-20
3.62496834e+01,7.38158112e-17,1.08294896e-16,6.42516677e-19,4.93863580e-22
3.72082787e+01,6.60732538e-19,2.71006434e-18,4.33150704e-21,6.86146246e-24
3.81915474e+01,1.29064151e-19,1.69998592e-19,3.77548451e-22,5.39486985e-25
3.92001228e+01,1.66158681e-22,4.61860162e-22,4.19237367e-24,4.36978944e-27
4.02346535e+01,1.65672449e-23,1.75611355e-23,1.91651353e-25,1.73422926e-28
4.12958107e+01,1.49518218e-25,1.66078208e-25,4.30920508e-27,3.02217999e-30
4.23842850e+01,1.38256363e-26,1.04654648e-26,1.99872733e-28,5.21690153e-32
4.35007744e+01,1.62987010e-28,1.84008547e-28,9.61404104e-31,2.21437991e-33
4.46459999e+01,3.00142302e-30,3.69264266e-30,2.85617679e-32,8.20918074e-36
4.58207016e+01,2.43848942e-32,5.58056657e-32,1.14230764e-34,2.57704393e-37
4.70256386e+01,2.95519441e-34,3.33258136e-34,2.24979316e-36,7.87529737e-40
4.82615852e+01,1.60943034e-36,4.39504775e-36,2.14889120e-38,0.00000000e+00
4.95293465e+01,1.46575819e-38,3.18375011e-38,1.03696086e-40,0.00000000e+00
5.08297386e+01,9.52882956e-41,2.15799964e-40,0.00000000e+00,0.00000000e+00
5.21635971e+01,0.00000000e+00,0.00000000e+00,0.00000000e+00,0.00000000e+00
5.35317917e+01,0.00000000e+00,0.00000000e+00,0.00000000e+00,0.00000000e+00
5.49351997e+01,0.00000000e+00,0.00000000e+00,0.00000000e+00,0.00000000e+00
5.63747253e+01,0.00000000e+00,0.00000000e+00,0.00000000e+00,0.00000000e+00
5.78513031e+01,0.00000000e+00,0.00000000e+00,0.00000000e+00,0.00000000e+00
5.93278885e+01,0.00000000e+00,0.00000000e+00,0.00000000e+00,0.00000000e+00
6.08044662e+01,0.00000000e+00,0.00000000e+00,0.00000000e+00,0.00000000e+00
6.22810478e+01,0.00000000e+00,0.00000000e+00,0.00000000e+00,0.00000000e+00
6.37576256e+01,0.00000000e+00,0.00000000e+00,0.00000000e+00,0.00000000e+00
6.52341995e+01,0.00000000e+00,0.00000000e+00,0.00000000e+00,0.00000000e+00
6.67107849e+01,0.00000000e+00,0.00000000e+00,0.00000000e+00,0.00000000e+00
6.81873703e+01,0.00000000e+00,0.00000000e+00,0.00000000e+00,0.00000000e+00
6.96639481e+01,0.00000000e+00,0.00000000e+00,0.00000000e+00,0.00000000e+00
7.11405258e+01,0.00000000e+00,0.00000000e+00,0.00000000e+00,0.00000000e+00
7.26171036e+01,0.00000000e+00,0.00000000e+00,0.00000000e+00,0.00000000e+00
7.40936813e+01,0.00000000e+00,0.00000000e+00,0.00000000e+00,0.00000000e+00
7.55702591e+01,0.00000000e+00,0.00000000e+00,0.00000000e+00,0.00000000e+00
7.70468445e+01,0.00000000e+00,0.00000000e+00,0.00000000e+00,0.00000000e+00
7.85234222e+01,0.00000000e+00,0.00000000e+00,0.00000000e+00,0.00000000e+00
8.00000000e+01,0.00000000e+00,0.00000000e+00,0.00000000e+00,0.00000000e+00
