Height (km), 7_8 um ash conc (g/kg), 15_6 um ash conc (g/kg), 125 um ash conc (g/kg), 1 mm ash conc (g/kg)
0.00000000e+00,0.00000000e+00,0.00000000e+00,0.00000000e+00,0.00000000e+00
3.99999991e-02,3.67872347e-03,5.54647716e-03,1.32994633e-02,6.29700327e+00
7.99999982e-02,5.93834231e-03,8.83174036e-03,2.54120342e-02,8.82862854e+00
1.19999997e-01,7.64653133e-03,1.13437371e-02,4.16386500e-02,1.05927982e+01
1.59999996e-01,9.98624042e-03,1.46105699e-02,6.16051033e-02,1.24064503e+01
2.00000003e-01,1.25131384e-02,1.81364398e-02,6.95535615e-02,1.41378088e+01
2.39999995e-01,1.45666096e-02,2.10362729e-02,8.40121359e-02,1.56795292e+01
2.80000001e-01,1.66711658e-02,2.39283144e-02,9.15236622e-02,1.68985882e+01
3.19999993e-01,1.88085474e-02,2.68576965e-02,9.76963043e-02,1.80865841e+01
3.60000014e-01,2.05297060e-02,2.91758981e-02,9.92994010e-02,1.90756073e+01
4.00000006e-01,2.16968991e-02,3.08151431e-02,9.92231518e-02,2.00165539e+01
4.39999998e-01,2.28770301e-02,3.25562097e-02,9.62660462e-02,2.10812626e+01
4.79999989e-01,2.42588017e-02,3.45472954e-02,9.72836763e-02,2.18421841e+01
5.19999981e-01,2.59488691e-02,3.68380658e-02,9.41507667e-02,2.29213047e+01
5.60000002e-01,2.76622940e-02,3.89960185e-02,9.48549658e-02,2.37414608e+01
6.00000024e-01,2.98246983e-02,4.17677797e-02,9.34231132e-02,2.48608646e+01
6.41029537e-01,3.19009796e-02,4.42571193e-02,9.60895717e-02,2.62335262e+01
6.83115125e-01,3.34318280e-02,4.61246483e-02,9.49116498e-02,2.72569332e+01
7.26283848e-01,3.47050838e-02,4.77760173e-02,9.67365205e-02,2.90301628e+01
7.70563781e-01,3.60376574e-02,4.97021936e-02,9.75860059e-02,3.03592720e+01
8.15983355e-01,3.77002880e-02,5.22000007e-02,1.02432579e-01,3.22193832e+01
8.62571895e-01,4.02923711e-02,5.61125018e-02,1.08147882e-01,3.42711983e+01
9.10359621e-01,4.47614379e-02,6.25790730e-02,1.17727131e-01,3.60752411e+01
9.59377348e-01,4.99836467e-02,7.01584071e-02,1.27455845e-01,3.79302673e+01
1.00965667e+00,5.71235679e-02,8.03231522e-02,1.44401789e-01,4.14243317e+01
1.06123006e+00,6.57952353e-02,9.24438760e-02,1.64828107e-01,4.34973755e+01
1.11413085e+00,7.67128319e-02,1.07644774e-01,1.93202019e-01,4.68143005e+01
1.16839325e+00,9.07031298e-02,1.27095044e-01,2.38615036e-01,4.70166664e+01
1.22405231e+00,1.08384088e-01,1.51788235e-01,2.89591670e-01,5.15098991e+01
1.28114390e+00,1.30441472e-01,1.82704419e-01,3.61259460e-01,5.09394493e+01
1.33970511e+00,1.56504691e-01,2.19674528e-01,4.51381594e-01,5.43666725e+01
1.39977336e+00,2.07082812e+04,2.89940078e+04,1.95345664e+04,1.36297510e+03
1.46138775e+00,2.65903203e+04,3.71852070e+04,2.25174336e+04,1.43736938e+03
1.52458799e+00,1.63824668e+04,2.29061641e+04,1.40795293e+04,1.06427783e+03
1.58941495e+00,1.57921807e+04,2.20955938e+04,1.42132930e+04,1.30663794e+03
1.65591037e+00,1.58244004e+04,2.21462324e+04,1.44806816e+04,1.40330347e+03
1.72411728e+00,1.55767383e+04,2.18012383e+04,1.43171309e+04,1.41113379e+03
1.79407966e+00,1.47830449e+04,2.06903594e+04,1.35777051e+04,1.36245178e+03
1.86584306e+00,1.36777305e+04,1.91436992e+04,1.25704336e+04,1.34388208e+03
1.93945324e+00,1.28239609e+04,1.79509102e+04,1.18813311e+04,1.31852759e+03
2.01495814e+00,1.28599414e+04,1.80055625e+04,1.21116855e+04,1.49737427e+03
2.09240627e+00,1.39026768e+04,1.94705840e+04,1.33354160e+04,1.73148828e+03
2.17184782e+00,1.58995957e+04,2.22722090e+04,1.55314170e+04,2.22270752e+03
2.25333428e+00,1.86961133e+04,2.61936074e+04,1.85414668e+04,2.69302100e+03
2.33691788e+00,2.09104102e+04,2.92958145e+04,2.07869062e+04,3.01553809e+03
2.42265272e+00,2.14292305e+04,3.00198047e+04,2.11677539e+04,2.91148242e+03
2.51059437e+00,2.07925547e+04,2.91251055e+04,2.03887812e+04,2.78639648e+03
2.60079956e+00,1.96223730e+04,2.74835820e+04,1.91058203e+04,2.50415332e+03
2.69332647e+00,1.80105059e+04,2.52242461e+04,1.74190508e+04,2.27326489e+03
2.78823495e+00,1.67446758e+04,2.34502695e+04,1.60880938e+04,2.02192017e+03
2.88558602e+00,1.59571836e+04,2.23467520e+04,1.52619707e+04,1.95209863e+03
2.98544264e+00,1.59584404e+04,2.23495410e+04,1.52978848e+04,1.98675732e+03
3.08786964e+00,1.72087188e+04,2.41036660e+04,1.66286016e+04,2.23028735e+03
3.19293284e+00,1.86634023e+04,2.61405430e+04,1.79779062e+04,2.37953296e+03
3.30070019e+00,1.90910234e+04,2.67371406e+04,1.83016816e+04,2.41862354e+03
3.41124129e+00,1.91248242e+04,2.67833242e+04,1.82960000e+04,2.43639819e+03
3.52462745e+00,1.86546426e+04,2.61226621e+04,1.77474648e+04,2.38206494e+03
3.64093208e+00,1.76025625e+04,2.46487930e+04,1.67218164e+04,2.31209937e+03
3.76023054e+00,1.64104473e+04,2.29801855e+04,1.56240859e+04,2.22024683e+03
3.88259912e+00,1.52143535e+04,2.13066367e+04,1.45548330e+04,2.15766675e+03
4.00811720e+00,1.43237676e+04,2.00612754e+04,1.37971465e+04,2.11314941e+03
4.13686609e+00,1.42467969e+04,1.99551133e+04,1.38092754e+04,2.15448608e+03
4.26892853e+00,1.46984844e+04,2.05890547e+04,1.43196777e+04,2.25781738e+03
4.40439081e+00,1.53076455e+04,2.14441602e+04,1.50161016e+04,2.41346216e+03
4.54333878e+00,1.70521602e+04,2.38907695e+04,1.68654375e+04,2.71506494e+03
4.68586397e+00,1.93847422e+04,2.71586836e+04,1.91722930e+04,2.98981836e+03
4.83205652e+00,1.97455430e+04,2.76607891e+04,1.94014531e+04,2.98869922e+03
4.98201227e+00,1.96600820e+04,2.75398496e+04,1.93008965e+04,2.97547021e+03
5.13582754e+00,2.00924609e+04,2.81448047e+04,1.97013340e+04,2.99170068e+03
5.29360199e+00,2.01523047e+04,2.82270117e+04,1.96637148e+04,2.91453662e+03
5.45543718e+00,1.94874805e+04,2.72927754e+04,1.88433086e+04,2.72133203e+03
5.62143755e+00,1.79824609e+04,2.51826641e+04,1.72523496e+04,2.49572754e+03
5.79171038e+00,1.68046641e+04,2.35328691e+04,1.60670254e+04,2.37270410e+03
5.96636629e+00,1.63047842e+04,2.28305254e+04,1.54722051e+04,2.29960181e+03
6.14551687e+00,1.54636523e+04,2.16508125e+04,1.45980342e+04,2.23503467e+03
6.32927942e+00,1.49454434e+04,2.09257969e+04,1.41193516e+04,2.23550830e+03
6.51777077e+00,1.51764609e+04,2.12493516e+04,1.43266582e+04,2.26367603e+03
6.71111441e+00,1.54942334e+04,2.16935859e+04,1.45953965e+04,2.35009326e+03
6.90943432e+00,1.52341953e+04,2.13286973e+04,1.43293027e+04,2.30381812e+03
7.11285782e+00,1.43731016e+04,2.01233418e+04,1.35520400e+04,2.30332715e+03
7.32151794e+00,1.35892070e+04,1.90274277e+04,1.28994297e+04,2.24757910e+03
7.53554821e+00,1.32790752e+04,1.85949160e+04,1.26937920e+04,2.29829443e+03
7.75508738e+00,1.32055254e+04,1.84931016e+04,1.26951514e+04,2.30180908e+03
7.98027754e+00,1.30488828e+04,1.82759023e+04,1.26613271e+04,2.37583276e+03
8.21126270e+00,1.34403672e+04,1.88271309e+04,1.31804199e+04,2.45081274e+03
8.44819450e+00,1.46077461e+04,2.04624922e+04,1.43362012e+04,2.60853418e+03
8.69122219e+00,1.53724824e+04,2.15315352e+04,1.50137695e+04,2.66086108e+03
8.94050789e+00,1.56094893e+04,2.18629727e+04,1.52441572e+04,2.70205273e+03
9.19620800e+00,1.63015059e+04,2.28321504e+04,1.59133906e+04,2.77746777e+03
9.45849037e+00,1.73236758e+04,2.42609961e+04,1.67870586e+04,2.80970703e+03
9.72752285e+00,1.73545781e+04,2.43011855e+04,1.67257773e+04,2.75248218e+03
1.00034800e+01,1.68849746e+04,2.36429941e+04,1.63329824e+04,2.67371582e+03
1.02865391e+01,1.68386250e+04,2.35774258e+04,1.63540068e+04,2.65551025e+03
1.05768833e+01,1.63401230e+04,2.28809824e+04,1.60474590e+04,2.63588940e+03
1.08747025e+01,1.63480088e+04,2.28939609e+04,1.62660938e+04,2.68670508e+03
1.11801853e+01,1.63287490e+04,2.28672754e+04,1.64093770e+04,2.71584570e+03
1.14935322e+01,1.62695352e+04,2.27852598e+04,1.66116406e+04,2.77992188e+03
1.18149433e+01,1.73368984e+04,2.42801348e+04,1.78671035e+04,2.95145557e+03
1.21446266e+01,1.68508906e+04,2.36002031e+04,1.75214961e+04,2.95949146e+03
1.24827967e+01,1.56413135e+04,2.19084102e+04,1.65212324e+04,2.89619946e+03
1.28296700e+01,1.57885879e+04,2.21149004e+04,1.68964023e+04,2.97233447e+03
1.31854706e+01,1.57046025e+04,2.20004082e+04,1.71182617e+04,3.04722510e+03
1.35504293e+01,1.55504844e+04,2.17913809e+04,1.73252578e+04,3.14637134e+03
1.39247818e+01,1.68392461e+04,2.36027188e+04,1.91000059e+04,3.32004199e+03
1.43087692e+01,1.88697793e+04,2.64455410e+04,2.13424082e+04,3.43558667e+03
1.47026405e+01,1.97042051e+04,2.76135996e+04,2.23047891e+04,3.50445801e+03
1.51066484e+01,1.91091895e+04,2.67868379e+04,2.20240820e+04,3.52243799e+03
1.55210552e+01,1.75022656e+04,2.45452031e+04,2.08156758e+04,3.52942871e+03
1.59461288e+01,1.84936113e+04,2.59365254e+04,2.22123906e+04,3.73766846e+03
1.63821430e+01,1.98755352e+04,2.78763203e+04,2.39291797e+04,3.83191675e+03
1.68293781e+01,1.84157031e+04,2.58512930e+04,2.33358047e+04,3.75872632e+03
1.72881241e+01,1.90751387e+04,2.67845156e+04,2.53302539e+04,3.88441699e+03
1.77586803e+01,2.09898711e+04,2.94740703e+04,2.85691094e+04,3.95521362e+03
1.82413464e+01,2.19176641e+04,3.08159160e+04,3.19477734e+04,4.00539551e+03
1.87364349e+01,2.70296602e+04,3.80371055e+04,3.69076758e+04,4.25838086e+03
1.92442665e+01,3.19480840e+04,4.49458438e+04,4.07662031e+04,4.30192969e+03
1.97651691e+01,3.37502969e+04,4.75075547e+04,4.07025469e+04,4.07911475e+03
2.02994785e+01,3.83017812e+04,5.38734805e+04,4.14620312e+04,4.22491211e+03
2.08475418e+01,4.43987305e+04,6.23718359e+04,4.22228828e+04,4.30452539e+03
2.14097099e+01,4.61993984e+04,6.48019023e+04,3.95485156e+04,4.11503613e+03
2.19863453e+01,4.91412578e+04,6.87889375e+04,4.03511992e+04,4.23627734e+03
2.25778236e+01,5.39536797e+04,7.53991094e+04,4.32532383e+04,4.39922607e+03
2.31845264e+01,5.11817539e+04,7.14549609e+04,4.08245508e+04,4.28666699e+03
2.38068466e+01,4.96221328e+04,6.92511328e+04,3.97252734e+04,4.07943115e+03
2.44451809e+01,4.73777773e+04,6.60797812e+04,3.71956797e+04,3.79874023e+03
2.50999470e+01,4.13960898e+04,5.77462891e+04,3.33914297e+04,3.68655884e+03
2.57715645e+01,4.18142070e+04,5.83430820e+04,3.42856172e+04,3.42794092e+03
2.64604683e+01,3.96308438e+04,5.52846914e+04,3.19019375e+04,2.60201807e+03
2.71671047e+01,3.47454375e+04,4.84739453e+04,2.78943555e+04,2.34448535e+03
2.78919277e+01,3.29622930e+04,4.59935117e+04,2.65383984e+04,2.13361572e+03
2.86354065e+01,3.18614375e+04,4.44469062e+04,2.49569453e+04,1.68124084e+03
2.93980217e+01,2.73421914e+04,3.81517266e+04,2.15493770e+04,1.23336865e+03
3.01802654e+01,2.56227227e+04,3.57729062e+04,2.10971875e+04,1.29369397e+03
3.09826431e+01,2.64504238e+04,3.69047344e+04,1.98789395e+04,8.47237915e+02
3.18056717e+01,9.36028223e+03,1.29839346e+04,4.33904248e+03,5.68156013e+01
3.26498833e+01,1.75231677e+03,2.40855176e+03,3.87101929e+02,3.53746414e-01
3.35158234e+01,8.44289673e+02,1.15896777e+03,2.06773010e+02,6.79719374e-02
3.44040565e+01,5.80113708e+02,7.93535034e+02,1.09501915e+02,9.01249982e-03
3.53151436e+01,3.63120239e+02,4.96142700e+02,7.38762589e+01,4.81920037e-03
3.62496834e+01,2.45278946e+02,3.35597229e+02,4.33701477e+01,1.93432625e-03
3.72082787e+01,1.61062286e+02,2.19095001e+02,1.90153313e+01,6.92637650e-06
3.81915474e+01,5.02753639e+01,6.75706329e+01,3.98166704e+00,8.63504374e-06
3.92001228e+01,2.22477760e+01,2.98254948e+01,2.40852118e+00,1.79482481e-06
4.02346535e+01,1.87849503e+01,2.53199577e+01,1.91829455e+00,1.11959707e-06
4.12958107e+01,2.40315270e+00,3.14667368e+00,2.01749746e-02,2.21771188e-07
4.23842850e+01,6.79507405e-02,7.84481317e-02,6.54548858e-05,3.09828359e-08
4.35007744e+01,7.34527921e-03,8.42667744e-03,2.32065086e-05,3.74124021e-09
4.46459999e+01,6.89053675e-04,7.86885095e-04,6.19881121e-07,3.85397464e-10
4.58207016e+01,8.60929358e-05,9.97553288e-05,1.07845722e-07,1.93823742e-11
4.70256386e+01,5.85291673e-06,6.63738456e-06,8.85705909e-09,1.27146362e-12
4.82615852e+01,2.64371181e-07,3.08939036e-07,3.13059828e-10,1.41264279e-13
4.95293465e+01,2.05317292e-08,2.48252956e-08,3.37909353e-11,6.88022586e-15
5.08297386e+01,5.96333705e-10,6.84215573e-10,9.30340332e-13,1.33334143e-16
5.21635971e+01,1.75729518e-11,2.17516283e-11,3.39415081e-14,7.14604971e-18
5.35317917e+01,2.14347190e-13,2.44232802e-13,4.96860262e-16,1.09400168e-19
5.49351997e+01,9.08921494e-15,1.19764741e-14,1.37786643e-17,5.38030623e-21
5.63747253e+01,1.09117233e-16,8.46219399e-17,4.56109334e-18,6.95491833e-23
5.78513031e+01,8.87802281e-18,9.72161799e-18,5.41476347e-21,3.23776895e-24
5.93278885e+01,1.65898454e-18,2.08419860e-18,2.01693028e-21,9.78212236e-26
6.08044662e+01,3.60159164e-21,3.24911516e-21,6.55226487e-24,2.59292474e-27
6.22810478e+01,8.61918462e-22,1.06423531e-21,1.01787383e-24,7.83181037e-29
6.37576256e+01,2.80656357e-24,1.97721892e-24,8.44951920e-27,2.14019642e-30
6.52341995e+01,3.97668160e-25,4.94026607e-25,6.25696217e-28,8.44269489e-32
6.67107849e+01,2.95459359e-27,1.90070835e-27,8.84985197e-30,2.36980120e-33
6.81873703e+01,2.31183021e-28,2.44789451e-28,4.64864428e-31,8.08514542e-35
6.96639481e+01,3.29918570e-30,2.87601225e-30,7.27256020e-33,2.14944207e-36
7.11405258e+01,1.56545966e-31,1.46029265e-31,2.97080345e-34,5.63658294e-38
7.26171036e+01,3.88125606e-33,4.09694752e-33,4.58800561e-36,2.33316194e-39
7.40936813e+01,1.30316084e-34,1.46182078e-34,1.66950699e-37,4.76441478e-41
7.55702591e+01,5.28660002e-36,4.90263760e-36,4.24313175e-39,0.00000000e+00
7.70468445e+01,1.70582865e-37,1.53000773e-37,7.00649232e-41,0.00000000e+00
7.85234222e+01,4.18147462e-39,4.55982520e-39,0.00000000e+00,0.00000000e+00
8.00000000e+01,3.02680468e-40,2.77457096e-40,0.00000000e+00,0.00000000e+00
