Height (km), 7_8 um ash conc (g/kg), 15_6 um ash conc (g/kg), 125 um ash conc (g/kg), 1 mm ash conc (g/kg)
0.00000000e+00,0.00000000e+00,0.00000000e+00,0.00000000e+00,0.00000000e+00
3.99999991e-02,1.46794719e-30,2.07049694e-30,4.40008432e-26,1.10296612e+01
7.99999982e-02,5.83834974e-28,8.52682083e-28,6.29582286e-20,1.70893078e+01
1.19999997e-01,1.03532275e-25,1.51641968e-25,6.49191528e-17,2.13443222e+01
1.59999996e-01,4.55630518e-24,6.72483885e-24,1.79265524e-15,2.62534809e+01
2.00000003e-01,3.32358270e-23,5.01403557e-23,1.04877356e-13,2.94000854e+01
2.39999995e-01,1.45187181e-21,2.08561737e-21,1.88751250e-12,3.25079880e+01
2.80000001e-01,1.72089304e-20,2.52061804e-20,1.61850151e-11,3.48501854e+01
3.19999993e-01,8.34283406e-19,1.22347540e-18,2.20190630e-10,3.75920906e+01
3.60000014e-01,7.69840287e-18,1.14758638e-17,9.58269464e-10,3.99071999e+01
4.00000006e-01,2.46937871e-16,3.61836699e-16,5.03094721e-09,4.26707268e+01
4.39999998e-01,1.55861251e-15,2.33723982e-15,2.04825081e-08,4.42549744e+01
4.79999989e-01,2.44007746e-14,3.58387738e-14,1.08130777e-07,4.72870522e+01
5.19999981e-01,9.54040517e-14,1.43942855e-13,7.34792252e-07,4.84642639e+01
5.60000002e-01,3.00056231e-13,4.49470024e-13,2.09566952e-06,5.17683372e+01
6.00000024e-01,7.72317540e-13,1.17284654e-12,2.45089086e-06,5.38799477e+01
6.41029537e-01,1.83495515e-12,2.79429973e-12,2.17534603e-06,5.83005524e+01
6.83115125e-01,4.49452324e-12,6.86483596e-12,2.91882156e-06,6.25556412e+01
7.26283848e-01,1.12194594e-11,1.71316399e-11,2.49751020e-06,6.72675705e+01
7.70563781e-01,3.05461698e-11,4.65611438e-11,2.56926160e-06,7.14465637e+01
8.15983355e-01,9.58892826e-11,1.43436388e-10,2.10586313e-06,7.68257828e+01
8.62571895e-01,2.76981604e-10,4.16464502e-10,2.71212616e-06,8.18838730e+01
9.10359621e-01,9.75261871e-10,1.41122491e-09,7.71458599e-06,8.65519104e+01
9.59377348e-01,2.96946157e-09,4.14593471e-09,2.42287952e-05,9.17309799e+01
1.00965667e+00,1.04028750e-08,1.36678402e-08,3.72010545e-05,9.86821976e+01
1.06123006e+00,4.91436225e-08,6.08197155e-08,4.29939755e-05,1.06202553e+02
1.11413085e+00,2.54102474e-07,3.05227161e-07,6.84152692e-05,1.14931053e+02
1.16839325e+00,9.85484235e-07,1.17398736e-06,6.54731703e-05,1.20690720e+02
1.22405231e+00,2.07759763e-06,2.58655837e-06,8.63370660e-05,1.29248291e+02
1.28114390e+00,3.18972388e-06,3.96936139e-06,1.29355889e-04,1.34977295e+02
1.33970511e+00,4.19336266e-06,5.11643975e-06,1.52795808e-04,1.43310303e+02
1.39977336e+00,2.07135742e+04,2.90003770e+04,1.94720918e+04,1.33955823e+03
1.46138775e+00,2.63570312e+04,3.68587891e+04,2.22797500e+04,1.47464160e+03
1.52458799e+00,1.60442412e+04,2.24342266e+04,1.38023301e+04,1.10123169e+03
1.58941495e+00,1.62746611e+04,2.27706133e+04,1.46023066e+04,1.35162500e+03
1.65591037e+00,1.61409883e+04,2.25846758e+04,1.45082334e+04,1.32493945e+03
1.72411728e+00,1.47928945e+04,2.06962871e+04,1.31797852e+04,1.20353247e+03
1.79407966e+00,1.28619043e+04,1.79934043e+04,1.13951836e+04,1.07428308e+03
1.86584306e+00,1.12079102e+04,1.56804648e+04,9.97000781e+03,1.01552350e+03
1.93945324e+00,1.01663535e+04,1.42256357e+04,9.15007031e+03,1.01738721e+03
2.01495814e+00,9.68820508e+03,1.35597754e+04,8.86741309e+03,1.08824292e+03
2.09240627e+00,9.80969434e+03,1.37343076e+04,9.19285645e+03,1.24026978e+03
2.17184782e+00,1.08304199e+04,1.51691533e+04,1.04406250e+04,1.54211865e+03
2.25333428e+00,1.28262256e+04,1.79698867e+04,1.26727061e+04,1.98054504e+03
2.33691788e+00,1.55211963e+04,2.17500117e+04,1.56229473e+04,2.52344849e+03
2.42265272e+00,1.85990078e+04,2.60658164e+04,1.89429238e+04,3.06620483e+03
2.51059437e+00,2.16422188e+04,3.03315449e+04,2.21528164e+04,3.50445215e+03
2.60079956e+00,2.41704258e+04,3.38726641e+04,2.46592520e+04,3.67785156e+03
2.69332647e+00,2.54937539e+04,3.57213906e+04,2.56891797e+04,3.51391162e+03
2.78823495e+00,2.52519102e+04,3.53746953e+04,2.49834629e+04,3.08978467e+03
2.88558602e+00,2.39163164e+04,3.34954961e+04,2.31674961e+04,2.59920801e+03
2.98544264e+00,2.18993828e+04,3.06631523e+04,2.07582930e+04,2.14997852e+03
3.08786964e+00,1.96321816e+04,2.74825410e+04,1.82445781e+04,1.78956982e+03
3.19293284e+00,1.74858262e+04,2.44735156e+04,1.59910449e+04,1.53299731e+03
3.30070019e+00,1.55867676e+04,2.18128203e+04,1.40969121e+04,1.36370166e+03
3.41124129e+00,1.39576221e+04,1.95317305e+04,1.25550938e+04,1.26468066e+03
3.52462745e+00,1.26315254e+04,1.76761348e+04,1.13630635e+04,1.20017603e+03
3.64093208e+00,1.15580234e+04,1.61749434e+04,1.04463516e+04,1.17609058e+03
3.76023054e+00,1.07092734e+04,1.49887920e+04,9.75635352e+03,1.16894678e+03
3.88259912e+00,1.00873652e+04,1.41203555e+04,9.28363770e+03,1.18330225e+03
4.00811720e+00,9.71203613e+03,1.35971797e+04,9.04459570e+03,1.22647168e+03
4.13686609e+00,9.60301367e+03,1.34468877e+04,9.05802734e+03,1.28633948e+03
4.26892853e+00,9.79358008e+03,1.37161230e+04,9.35908398e+03,1.39238574e+03
4.40439081e+00,1.03436416e+04,1.44887969e+04,1.00094336e+04,1.53429626e+03
4.54333878e+00,1.12665801e+04,1.57837480e+04,1.10299814e+04,1.73338647e+03
4.68586397e+00,1.25752588e+04,1.76190684e+04,1.24377588e+04,1.97974316e+03
4.83205652e+00,1.42913633e+04,2.00250430e+04,1.42521387e+04,2.29386963e+03
4.98201227e+00,1.63126768e+04,2.28582031e+04,1.63641289e+04,2.65761230e+03
5.13582754e+00,1.84625039e+04,2.58709336e+04,1.86006094e+04,3.04335596e+03
5.29360199e+00,2.06440723e+04,2.89276172e+04,2.08601660e+04,3.40397363e+03
5.45543718e+00,2.25989434e+04,3.16655312e+04,2.28338398e+04,3.64409229e+03
5.62143755e+00,2.40112285e+04,3.36416133e+04,2.41499902e+04,3.67911182e+03
5.79171038e+00,2.45657539e+04,3.44140625e+04,2.44558965e+04,3.48851514e+03
5.96636629e+00,2.39277227e+04,3.35141523e+04,2.34404785e+04,3.09997681e+03
6.14551687e+00,2.24575645e+04,3.14487773e+04,2.15968242e+04,2.68732837e+03
6.32927942e+00,2.08069141e+04,2.91319648e+04,1.96594219e+04,2.34450366e+03
6.51777077e+00,1.90350117e+04,2.66471406e+04,1.77265781e+04,2.10377881e+03
6.71111441e+00,1.73701992e+04,2.43144375e+04,1.60301084e+04,1.93819763e+03
6.90943432e+00,1.60526816e+04,2.24691758e+04,1.47433027e+04,1.84340454e+03
7.11285782e+00,1.48603711e+04,2.08004062e+04,1.36518086e+04,1.78366431e+03
7.32151794e+00,1.39840781e+04,1.95749355e+04,1.29066455e+04,1.77097876e+03
7.53554821e+00,1.33595391e+04,1.87021836e+04,1.24194746e+04,1.78044653e+03
7.75508738e+00,1.29925234e+04,1.81907988e+04,1.22137246e+04,1.83386462e+03
7.98027754e+00,1.30539766e+04,1.82789062e+04,1.23913799e+04,1.91835962e+03
8.21126270e+00,1.30168164e+04,1.82288398e+04,1.24767637e+04,1.98973560e+03
8.44819450e+00,1.34917412e+04,1.88963477e+04,1.30688633e+04,2.11914648e+03
8.69122219e+00,1.44480176e+04,2.02369375e+04,1.40798828e+04,2.28700049e+03
8.94050789e+00,1.48386562e+04,2.07855547e+04,1.45600166e+04,2.38910986e+03
9.19620800e+00,1.59320293e+04,2.23182344e+04,1.57043789e+04,2.55695703e+03
9.45849037e+00,1.69410703e+04,2.37322305e+04,1.67566113e+04,2.72095630e+03
9.72752285e+00,1.76038672e+04,2.46616152e+04,1.74814512e+04,2.84284131e+03
1.00034800e+01,1.93787227e+04,2.71476250e+04,1.92367344e+04,3.02909082e+03
1.02865391e+01,2.01931816e+04,2.82876992e+04,2.00451523e+04,3.12027197e+03
1.05768833e+01,2.14200156e+04,3.00061445e+04,2.12711602e+04,3.23884229e+03
1.08747025e+01,2.35622559e+04,3.30038984e+04,2.32458594e+04,3.38208838e+03
1.11801853e+01,2.43454766e+04,3.40969453e+04,2.38387090e+04,3.34238916e+03
1.14935322e+01,2.38484590e+04,3.33972773e+04,2.31850527e+04,3.21629492e+03
1.18149433e+01,2.45728594e+04,3.44072188e+04,2.36645586e+04,3.23169775e+03
1.21446266e+01,2.44641816e+04,3.42494570e+04,2.34063359e+04,3.21223755e+03
1.24827967e+01,2.08774160e+04,2.92241934e+04,2.00737422e+04,2.91142285e+03
1.28296700e+01,1.64781914e+04,2.30759531e+04,1.66589570e+04,2.78238965e+03
1.31854706e+01,1.82842695e+04,2.56089277e+04,1.88934863e+04,3.13853662e+03
1.35504293e+01,1.96561211e+04,2.75284609e+04,2.05347383e+04,3.36027466e+03
1.39247818e+01,2.11481582e+04,2.96192812e+04,2.24185879e+04,3.55791406e+03
1.43087692e+01,2.07533633e+04,2.90602305e+04,2.23612812e+04,3.42143018e+03
1.47026405e+01,1.53538740e+04,2.15045938e+04,1.81250352e+04,2.96185132e+03
1.51066484e+01,1.47798740e+04,2.07124375e+04,1.85938750e+04,3.02548071e+03
1.55210552e+01,1.60766650e+04,2.25460430e+04,2.08838730e+04,3.27544556e+03
1.59461288e+01,1.55631074e+04,2.18563477e+04,2.16633340e+04,3.28340869e+03
1.63821430e+01,1.78937871e+04,2.51572734e+04,2.49590098e+04,3.55836157e+03
1.68293781e+01,2.13155840e+04,2.99735820e+04,2.94002617e+04,3.88891846e+03
1.72881241e+01,2.37314473e+04,3.33683594e+04,3.26275469e+04,3.97069580e+03
1.77586803e+01,2.74270820e+04,3.85645547e+04,3.65445781e+04,4.16395801e+03
1.82413464e+01,3.01199141e+04,4.23489219e+04,3.95470664e+04,4.10058057e+03
1.87364349e+01,3.27903477e+04,4.61635469e+04,4.08309375e+04,3.93005908e+03
1.92442665e+01,3.66259375e+04,5.15492305e+04,4.08374297e+04,3.66984863e+03
1.97651691e+01,3.76901797e+04,5.29752070e+04,3.80794805e+04,3.43618896e+03
2.02994785e+01,4.09727305e+04,5.74850469e+04,3.79042578e+04,3.65316162e+03
2.08475418e+01,4.63683359e+04,6.49553789e+04,3.99025547e+04,3.89476636e+03
2.14097099e+01,4.60353789e+04,6.44559258e+04,3.75378594e+04,3.79697314e+03
2.19863453e+01,4.46356172e+04,6.24230273e+04,3.46726172e+04,3.67825220e+03
2.25778236e+01,4.32580742e+04,6.04336680e+04,3.27627754e+04,3.75690234e+03
2.31845264e+01,4.26560391e+04,5.95562578e+04,3.21145898e+04,3.96500854e+03
2.38068466e+01,4.34569727e+04,6.06170977e+04,3.36214375e+04,4.10902441e+03
2.44451809e+01,4.43430000e+04,6.18303672e+04,3.57020703e+04,4.19117285e+03
2.50999470e+01,4.50872734e+04,6.28425117e+04,3.63207656e+04,4.05587061e+03
2.57715645e+01,4.41785039e+04,6.15985703e+04,3.75579141e+04,3.97744531e+03
2.64604683e+01,4.32592422e+04,6.03752891e+04,3.75240664e+04,3.84409814e+03
2.71671047e+01,4.19617422e+04,5.85695234e+04,3.43545430e+04,2.67407104e+03
2.78919277e+01,3.30659609e+04,4.61295469e+04,2.61505508e+04,2.24329102e+03
2.86354065e+01,2.81884492e+04,3.93630859e+04,2.35284570e+04,1.86916113e+03
2.93980217e+01,2.35027383e+04,3.27893242e+04,1.74087422e+04,4.60894684e+02
3.01802654e+01,8.38986328e+03,1.16182402e+04,3.32172729e+03,2.81272978e-02
3.09826431e+01,2.67697852e+03,3.66911572e+03,3.55314026e+02,8.71785432e-02
3.18056717e+01,1.90645581e+03,2.60490332e+03,2.70994934e+02,6.03336096e-03
3.26498833e+01,6.60735901e+02,9.00689087e+02,1.53798141e+02,2.97555147e-04
3.35158234e+01,6.78037720e+02,9.38624084e+02,3.16765991e+02,2.20764996e-04
3.44040565e+01,1.16991431e+03,1.61361780e+03,2.63324463e+02,2.08538971e-04
3.53151436e+01,4.93909058e+02,6.71249451e+02,2.98743019e+01,9.59385507e-05
3.62496834e+01,9.07279816e+01,1.20619942e+02,4.02318716e+00,3.75838172e-05
3.72082787e+01,2.28806305e+01,3.08529491e+01,1.86506712e+00,8.11148493e-06
3.81915474e+01,5.50777292e+00,7.36803341e+00,2.85194665e-01,8.55230883e-06
3.92001228e+01,5.37058890e-01,7.29708850e-01,2.46804476e-01,1.93674259e-06
4.02346535e+01,5.38077176e-01,7.30004072e-01,7.46071935e-02,1.11672909e-06
4.12958107e+01,3.54012921e-02,4.66065928e-02,1.17693242e-04,1.33962132e-07
4.23842850e+01,6.75824890e-03,8.80789757e-03,1.03590988e-04,4.25732871e-08
4.35007744e+01,1.61578017e-03,2.07959767e-03,5.45289295e-05,1.23091635e-08
4.46459999e+01,2.02369440e-04,2.56071915e-04,7.10110271e-06,1.67380854e-09
4.58207016e+01,7.38035396e-06,9.05327488e-06,3.49115851e-07,6.98795743e-11
4.70256386e+01,1.47963945e-07,1.75409951e-07,9.73635661e-09,1.38909045e-12
4.82615852e+01,1.91991445e-09,2.18997376e-09,1.54535690e-10,1.81760836e-14
4.95293465e+01,1.81537702e-11,1.98877026e-11,1.60072964e-12,1.65788912e-16
5.08297386e+01,1.14012004e-13,1.20299549e-13,1.02755871e-14,9.87579102e-19
5.21635971e+01,3.82901932e-16,3.92434811e-16,3.39953100e-17,3.12843949e-21
5.35317917e+01,1.32466078e-18,1.48837006e-18,3.89301699e-20,3.64687793e-24
5.49351997e+01,1.44734575e-21,1.36950030e-21,6.30202281e-24,9.24956552e-28
5.63747253e+01,4.60445968e-22,5.16048217e-22,2.25104911e-25,8.36626375e-29
5.78513031e+01,7.11346447e-25,5.90992206e-25,1.57425128e-27,7.39967064e-31
5.93278885e+01,2.90746766e-25,3.45581079e-25,1.19508527e-28,4.81815651e-32
6.08044662e+01,7.35123223e-28,7.54950190e-28,1.06867483e-30,6.64891426e-34
6.22810478e+01,2.49162251e-28,2.93158002e-28,9.03375343e-32,4.42405277e-35
6.37576256e+01,1.42479047e-30,1.65297828e-30,9.79465974e-34,7.87147149e-37
6.52341995e+01,3.11873392e-31,3.74748234e-31,1.10048587e-34,5.31680663e-38
6.67107849e+01,4.37169214e-33,5.57811008e-33,1.77636450e-36,1.27237901e-39
6.81873703e+01,6.31334460e-34,8.15874813e-34,2.21637773e-37,8.26766094e-41
6.96639481e+01,1.70668980e-35,2.34518183e-35,6.44176904e-39,0.00000000e+00
7.11405258e+01,1.46346428e-36,2.21586210e-36,6.54406383e-40,0.00000000e+00
7.26171036e+01,4.06544710e-38,6.97216051e-38,5.60519386e-42,0.00000000e+00
7.40936813e+01,2.97075274e-39,5.13155498e-39,0.00000000e+00,0.00000000e+00
7.55702591e+01,6.58610278e-41,1.73761010e-40,0.00000000e+00,0.00000000e+00
7.70468445e+01,0.00000000e+00,2.80259693e-42,0.00000000e+00,0.00000000e+00
7.85234222e+01,0.00000000e+00,0.00000000e+00,0.00000000e+00,0.00000000e+00
8.00000000e+01,0.00000000e+00,0.00000000e+00,0.00000000e+00,0.00000000e+00
