Height (km), 7_8 um ash conc (g/kg), 15_6 um ash conc (g/kg), 125 um ash conc (g/kg), 1 mm ash conc (g/kg)
0.00000000e+00,0.00000000e+00,0.00000000e+00,0.00000000e+00,0.00000000e+00
3.99999991e-02,1.56197374e-10,3.22288224e-10,1.57747371e-03,6.19982624e+00
7.99999982e-02,1.54160573e-09,3.34921779e-09,4.30703303e-03,6.78255129e+00
1.19999997e-01,7.84184717e-09,1.74275598e-08,6.61623711e-03,6.79152775e+00
1.59999996e-01,2.40531630e-08,5.37018430e-08,7.90530257e-03,7.74512339e+00
2.00000003e-01,6.16879987e-08,1.36724921e-07,8.98849685e-03,9.01138020e+00
2.39999995e-01,1.26473452e-07,2.80956613e-07,9.84985754e-03,8.68857956e+00
2.80000001e-01,2.16297494e-07,4.82578287e-07,1.07230162e-02,1.16556025e+01
3.19999993e-01,3.63654436e-07,8.08405446e-07,1.17212245e-02,1.09533587e+01
3.60000014e-01,5.83734732e-07,1.29619002e-06,1.28253298e-02,1.21151285e+01
4.00000006e-01,8.44045871e-07,1.89721516e-06,1.43435821e-02,1.23719292e+01
4.39999998e-01,1.19508650e-06,2.72840407e-06,1.61841866e-02,1.38880835e+01
4.79999989e-01,1.60835464e-06,3.68147494e-06,1.80062018e-02,1.43011084e+01
5.19999981e-01,2.00551426e-06,4.58527666e-06,2.00508106e-02,1.50993595e+01
5.60000002e-01,2.54294991e-06,5.71547616e-06,2.22291723e-02,1.61014709e+01
6.00000024e-01,3.24478719e-06,7.13673762e-06,2.43629459e-02,1.78274956e+01
6.41029537e-01,4.41227576e-06,9.59509362e-06,2.61112843e-02,1.94251556e+01
6.83115125e-01,6.61594322e-06,1.39818594e-05,2.84981579e-02,2.04664707e+01
7.26283848e-01,1.42295576e-05,2.80754848e-05,3.00761349e-02,2.32856064e+01
7.70563781e-01,3.48380199e-05,6.72483438e-05,3.28402296e-02,2.28454933e+01
8.15983355e-01,1.34644361e-04,2.36462132e-04,3.43125351e-02,2.55012093e+01
8.62571895e-01,2.72981008e-04,4.69891791e-04,3.90647426e-02,2.63355064e+01
9.10359621e-01,7.59965973e-04,1.23769790e-03,4.48815413e-02,2.79275723e+01
9.59377348e-01,1.28461805e-03,2.05779751e-03,5.37886210e-02,3.07625790e+01
1.00965667e+00,2.41704914e-03,3.77783575e-03,6.58325180e-02,3.17889843e+01
1.06123006e+00,4.09788080e-03,6.31215889e-03,7.69641548e-02,3.32822914e+01
1.11413085e+00,6.07590470e-03,9.21284873e-03,8.46348181e-02,3.60916748e+01
1.16839325e+00,7.61381583e-03,1.12861563e-02,9.14462432e-02,3.57334671e+01
1.22405231e+00,8.02239496e-03,1.16608692e-02,1.05408035e-01,3.95777092e+01
1.28114390e+00,8.25257599e-03,1.19583681e-02,1.26335651e-01,3.75575638e+01
1.33970511e+00,8.85540806e-03,1.30166775e-02,1.56423241e-01,4.22523689e+01
1.39977336e+00,2.01973203e+04,2.82922637e+04,1.99900000e+04,2.06087500e+03
1.46138775e+00,2.53503828e+04,3.54903672e+04,2.37857617e+04,1.95932007e+03
1.52458799e+00,1.55221172e+04,2.17281797e+04,1.45758867e+04,1.29873230e+03
1.58941495e+00,1.43239043e+04,2.00554805e+04,1.36656230e+04,1.35142407e+03
1.65591037e+00,1.28500684e+04,1.79929102e+04,1.23187812e+04,1.26395081e+03
1.72411728e+00,1.13535215e+04,1.58983984e+04,1.09361953e+04,1.18579370e+03
1.79407966e+00,1.03828633e+04,1.45407090e+04,1.00759990e+04,1.16686230e+03
1.86584306e+00,1.01919834e+04,1.42755449e+04,9.99547070e+03,1.25936340e+03
1.93945324e+00,1.09603564e+04,1.53546377e+04,1.08931211e+04,1.49801599e+03
2.01495814e+00,1.28156719e+04,1.79568633e+04,1.29078330e+04,1.91753503e+03
2.09240627e+00,1.55538027e+04,2.17961211e+04,1.58321035e+04,2.47723682e+03
2.17184782e+00,1.86599062e+04,2.61504180e+04,1.91093496e+04,3.03974683e+03
2.25333428e+00,2.14353789e+04,3.00398789e+04,2.19677988e+04,3.43291431e+03
2.33691788e+00,2.31937070e+04,3.25020762e+04,2.36750195e+04,3.52962231e+03
2.42265272e+00,2.35469941e+04,3.29936953e+04,2.38449219e+04,3.33286475e+03
2.51059437e+00,2.24461055e+04,3.14470078e+04,2.24934980e+04,2.92274951e+03
2.60079956e+00,2.04033926e+04,2.85813926e+04,2.02289551e+04,2.46692432e+03
2.69332647e+00,1.80460156e+04,2.52763066e+04,1.77269004e+04,2.05919751e+03
2.78823495e+00,1.57786055e+04,2.20986172e+04,1.53907930e+04,1.74369519e+03
2.88558602e+00,1.38155176e+04,1.93482812e+04,1.34150059e+04,1.50869177e+03
2.98544264e+00,1.22318174e+04,1.71300957e+04,1.18535742e+04,1.35338879e+03
3.08786964e+00,1.10549844e+04,1.54822471e+04,1.07168984e+04,1.25494263e+03
3.19293284e+00,1.02088486e+04,1.42979053e+04,9.92351758e+03,1.21485059e+03
3.30070019e+00,9.67851074e+03,1.35561895e+04,9.45576953e+03,1.21192114e+03
3.41124129e+00,9.51286719e+03,1.33253086e+04,9.34840625e+03,1.25792297e+03
3.52462745e+00,9.51709863e+03,1.33322715e+04,9.40635645e+03,1.31972559e+03
3.64093208e+00,9.57150391e+03,1.34095918e+04,9.51993750e+03,1.39201965e+03
3.76023054e+00,9.71281934e+03,1.36086953e+04,9.72136133e+03,1.47766553e+03
3.88259912e+00,1.00419707e+04,1.40711875e+04,1.01225859e+04,1.59988696e+03
4.00811720e+00,1.07900918e+04,1.51206895e+04,1.09451641e+04,1.77458313e+03
4.13686609e+00,1.20146670e+04,1.68377344e+04,1.22458379e+04,2.01549719e+03
4.26892853e+00,1.42234043e+04,1.99340137e+04,1.45628184e+04,2.43406152e+03
4.40439081e+00,1.75089805e+04,2.45390898e+04,1.79850820e+04,3.01244629e+03
4.54333878e+00,2.15231426e+04,3.01640547e+04,2.21065039e+04,3.64162549e+03
4.68586397e+00,2.49675352e+04,3.49893516e+04,2.55917266e+04,4.09801758e+03
4.83205652e+00,2.71063848e+04,3.79839766e+04,2.76543770e+04,4.22958936e+03
4.98201227e+00,2.65963027e+04,3.72652891e+04,2.69042227e+04,3.85402979e+03
5.13582754e+00,2.41394746e+04,3.38191445e+04,2.41750840e+04,3.24525977e+03
5.29360199e+00,2.09893906e+04,2.94030508e+04,2.08413887e+04,2.68029346e+03
5.45543718e+00,1.84299434e+04,2.58159980e+04,1.82063457e+04,2.31266284e+03
5.62143755e+00,1.71391484e+04,2.40071445e+04,1.68765098e+04,2.13634961e+03
5.79171038e+00,1.60888750e+04,2.25360430e+04,1.58189209e+04,2.02359448e+03
5.96636629e+00,1.45440527e+04,2.03725859e+04,1.43047588e+04,1.88010303e+03
6.14551687e+00,1.25766367e+04,1.76173809e+04,1.23946699e+04,1.68618408e+03
6.32927942e+00,1.08739473e+04,1.52333994e+04,1.07673994e+04,1.53525903e+03
6.51777077e+00,1.04407393e+04,1.46283848e+04,1.04302939e+04,1.56669861e+03
6.71111441e+00,1.23761865e+04,1.73409883e+04,1.24269883e+04,1.87579041e+03
6.90943432e+00,1.50730449e+04,2.11200957e+04,1.51782803e+04,2.27326733e+03
7.11285782e+00,1.68883242e+04,2.36642676e+04,1.70555684e+04,2.56150195e+03
7.32151794e+00,1.76174355e+04,2.46863750e+04,1.78252656e+04,2.68545605e+03
7.53554821e+00,1.70497031e+04,2.38905938e+04,1.72560449e+04,2.60082520e+03
7.75508738e+00,1.56569463e+04,2.19382617e+04,1.58250576e+04,2.37845532e+03
7.98027754e+00,1.39396768e+04,1.95309980e+04,1.40542021e+04,2.09581689e+03
8.21126270e+00,1.33119385e+04,1.86497031e+04,1.33561035e+04,1.93933643e+03
8.44819450e+00,1.41151934e+04,1.97729785e+04,1.40697969e+04,1.95405005e+03
8.69122219e+00,1.42142744e+04,1.99113848e+04,1.41283350e+04,1.92949451e+03
8.94050789e+00,1.32808896e+04,1.86040684e+04,1.31953564e+04,1.81824915e+03
9.19620800e+00,1.15461475e+04,1.61729414e+04,1.14336445e+04,1.56400415e+03
9.45849037e+00,7.69209180e+03,1.07745498e+04,7.63396191e+03,1.07780627e+03
9.72752285e+00,4.97319092e+03,6.96802686e+03,5.03289209e+03,7.86533447e+02
1.00034800e+01,4.75725000e+03,6.66569385e+03,4.84176074e+03,7.58994934e+02
1.02865391e+01,4.61944189e+03,6.47253662e+03,4.71489502e+03,7.45809265e+02
1.05768833e+01,4.42369971e+03,6.19981299e+03,4.59555518e+03,7.65367737e+02
1.08747025e+01,4.07312109e+03,5.71001318e+03,4.29993506e+03,7.34494385e+02
1.11801853e+01,3.64099976e+03,5.10608057e+03,3.90340259e+03,6.80870544e+02
1.14935322e+01,3.91942920e+03,5.49718408e+03,4.21637500e+03,7.17124756e+02
1.18149433e+01,4.08195166e+03,5.72510547e+03,4.41460254e+03,7.41415588e+02
1.21446266e+01,4.24016357e+03,5.94803467e+03,4.63709375e+03,7.58845276e+02
1.24827967e+01,5.09609717e+03,7.14752881e+03,5.54604639e+03,8.33211548e+02
1.28296700e+01,5.79838086e+03,8.13162939e+03,6.31314990e+03,8.75747375e+02
1.31854706e+01,6.00165088e+03,8.41821191e+03,6.61338672e+03,8.75263611e+02
1.35504293e+01,6.12794092e+03,8.59681055e+03,6.81760547e+03,8.74550415e+02
1.39247818e+01,6.10857080e+03,8.57224512e+03,6.85799463e+03,8.69830750e+02
1.43087692e+01,6.39527637e+03,8.97666992e+03,7.10480615e+03,8.86212463e+02
1.47026405e+01,7.49935986e+03,1.05196494e+04,8.04983105e+03,9.32945740e+02
1.51066484e+01,8.67642188e+03,1.21629121e+04,9.13257910e+03,9.63440186e+02
1.55210552e+01,9.50099512e+03,1.33180518e+04,9.87702051e+03,9.84982666e+02
1.59461288e+01,9.74679004e+03,1.36682119e+04,1.00645771e+04,1.03628882e+03
1.63821430e+01,9.69041211e+03,1.35973691e+04,9.86061621e+03,1.03325635e+03
1.68293781e+01,1.01562314e+04,1.42388984e+04,9.77038965e+03,9.74423706e+02
1.72881241e+01,1.09546162e+04,1.53360215e+04,1.00555205e+04,9.92354248e+02
1.77586803e+01,1.04377461e+04,1.46001025e+04,9.21335938e+03,9.77558899e+02
1.82413464e+01,9.91605469e+03,1.38639336e+04,8.94748047e+03,1.15957007e+03
1.87364349e+01,1.37236689e+04,1.92046973e+04,1.31639131e+04,1.52884888e+03
1.92442665e+01,1.82863164e+04,2.55874707e+04,1.70761465e+04,1.52175769e+03
1.97651691e+01,1.84945508e+04,2.58726270e+04,1.68796816e+04,1.34227661e+03
2.02994785e+01,1.88451035e+04,2.63533984e+04,1.67793203e+04,1.15229370e+03
2.08475418e+01,1.62311562e+04,2.26883965e+04,1.41154385e+04,9.62982971e+02
2.14097099e+01,1.19580166e+04,1.67134277e+04,1.03200615e+04,7.40682495e+02
2.19863453e+01,7.66235400e+03,1.07058730e+04,6.44501270e+03,3.96836792e+02
2.25778236e+01,2.68595117e+03,3.74658789e+03,2.05806738e+03,9.12457504e+01
2.31845264e+01,5.00744507e+02,6.94763733e+02,2.93443420e+02,6.62426329e+00
2.38068466e+01,6.39735947e+01,8.79007874e+01,1.89692135e+01,3.97961587e-02
2.44451809e+01,2.75817966e+01,3.78385925e+01,7.21311855e+00,2.80965632e-03
2.50999470e+01,2.27135849e+01,3.13531780e+01,6.56446362e+00,2.49785883e-03
2.57715645e+01,2.01378441e+01,2.76565342e+01,2.77654648e+00,2.56308541e-03
2.64604683e+01,6.98955727e+00,9.52595806e+00,1.09319568e+00,1.84800685e-03
2.71671047e+01,3.28331685e+00,4.47256088e+00,4.86596286e-01,7.69212260e-04
2.78919277e+01,1.50747728e+00,2.04027081e+00,1.52533814e-01,1.15143921e-04
2.86354065e+01,4.04035032e-01,5.39102614e-01,2.24522129e-02,1.82982262e-06
2.93980217e+01,9.91076082e-02,1.30934149e-01,2.01028632e-03,2.43221990e-07
3.01802654e+01,2.83190161e-02,3.71456407e-02,2.93159042e-04,6.45675158e-08
3.09826431e+01,6.18771557e-03,8.03900138e-03,4.26911938e-05,1.59215006e-08
3.18056717e+01,1.62555755e-03,2.13629124e-03,2.43991763e-05,3.74954645e-09
3.26498833e+01,5.29374345e-04,6.95040857e-04,4.66677557e-06,1.29549704e-09
3.35158234e+01,9.52042901e-05,1.23743972e-04,8.40037274e-07,4.28225649e-10
3.44040565e+01,1.00329617e-05,1.30447170e-05,1.84480598e-07,4.37691446e-11
3.53151436e+01,6.25689609e-07,8.04963747e-07,2.44752218e-08,3.11176020e-12
3.62496834e+01,3.50700766e-08,4.52479867e-08,3.87529342e-09,1.86510367e-13
3.72082787e+01,2.22781660e-09,2.97365599e-09,3.90298766e-10,9.65914699e-15
3.81915474e+01,1.38088832e-10,1.88636134e-10,2.05669041e-11,4.39374174e-16
3.92001228e+01,6.35155643e-12,8.67945646e-12,7.09743082e-13,1.65183171e-17
4.02346535e+01,1.94106138e-13,2.63487149e-13,1.69494969e-14,4.56023276e-19
4.12958107e+01,3.89700038e-15,5.23859173e-15,2.82934786e-16,8.84944315e-21
4.23842850e+01,5.25027714e-17,6.96616638e-17,3.39532371e-18,1.17053491e-22
4.35007744e+01,4.90796450e-19,6.37221945e-19,3.10990377e-20,1.06949945e-24
4.46459999e+01,3.27174893e-21,4.05770703e-21,2.69946182e-22,6.54347872e-27
4.58207016e+01,1.79128365e-23,2.12000404e-23,2.10552892e-24,3.59747945e-29
4.70256386e+01,6.41044149e-26,6.63133980e-26,9.04172648e-27,1.31911460e-31
4.82615852e+01,1.28278586e-27,1.83862754e-27,2.73155878e-29,2.77858891e-33
4.95293465e+01,7.66177663e-30,6.82644590e-30,8.77351838e-31,1.42814428e-35
5.08297386e+01,3.58452097e-31,5.12010592e-31,1.98483544e-32,1.27523631e-36
5.21635971e+01,2.93588053e-33,2.56394714e-33,2.32654508e-34,3.95446427e-39
5.35317917e+01,7.98667654e-35,1.15544896e-34,4.36951748e-36,2.28411650e-40
5.49351997e+01,7.18070175e-37,7.84068418e-37,5.11389862e-38,0.00000000e+00
5.63747253e+01,1.58865207e-38,2.00806070e-38,1.31021406e-39,0.00000000e+00
5.78513031e+01,2.17201262e-40,3.72745392e-40,1.40129846e-41,0.00000000e+00
5.93278885e+01,0.00000000e+00,0.00000000e+00,0.00000000e+00,0.00000000e+00
6.08044662e+01,0.00000000e+00,0.00000000e+00,0.00000000e+00,0.00000000e+00
6.22810478e+01,0.00000000e+00,0.00000000e+00,0.00000000e+00,0.00000000e+00
6.37576256e+01,0.00000000e+00,0.00000000e+00,0.00000000e+00,0.00000000e+00
6.52341995e+01,0.00000000e+00,0.00000000e+00,0.00000000e+00,0.00000000e+00
6.67107849e+01,0.00000000e+00,0.00000000e+00,0.00000000e+00,0.00000000e+00
6.81873703e+01,0.00000000e+00,0.00000000e+00,0.00000000e+00,0.00000000e+00
6.96639481e+01,0.00000000e+00,0.00000000e+00,0.00000000e+00,0.00000000e+00
7.11405258e+01,0.00000000e+00,0.00000000e+00,0.00000000e+00,0.00000000e+00
7.26171036e+01,0.00000000e+00,0.00000000e+00,0.00000000e+00,0.00000000e+00
7.40936813e+01,0.00000000e+00,0.00000000e+00,0.00000000e+00,0.00000000e+00
7.55702591e+01,0.00000000e+00,0.00000000e+00,0.00000000e+00,0.00000000e+00
7.70468445e+01,0.00000000e+00,0.00000000e+00,0.00000000e+00,0.00000000e+00
7.85234222e+01,0.00000000e+00,0.00000000e+00,0.00000000e+00,0.00000000e+00
8.00000000e+01,0.00000000e+00,0.00000000e+00,0.00000000e+00,0.00000000e+00
