Height (km), 7_8 um ash conc (g/kg), 15_6 um ash conc (g/kg), 125 um ash conc (g/kg), 1 mm ash conc (g/kg)
0.00000000e+00,0.00000000e+00,0.00000000e+00,0.00000000e+00,0.00000000e+00
3.99999991e-02,4.65188565e-12,6.36529111e-12,1.47151232e-11,1.49157842e-08
7.99999982e-02,1.36417683e-11,1.91109437e-11,6.61852656e-11,8.02749071e-07
1.19999997e-01,2.88114341e-11,4.10333711e-11,1.68380018e-10,1.67482038e-04
1.59999996e-01,6.90019777e-11,9.99415689e-11,4.21125135e-10,6.40066864e-04
2.00000003e-01,1.29553396e-10,1.91507421e-10,9.53532808e-10,1.09985133e-03
2.39999995e-01,2.64157946e-10,3.93996419e-10,2.04189532e-09,2.00616149e-03
2.80000001e-01,4.42129777e-10,6.66120492e-10,3.91252719e-09,3.11102509e-03
3.19999993e-01,6.98589742e-10,1.05701081e-09,6.25922869e-09,4.29352466e-03
3.60000014e-01,1.07545040e-09,1.63438274e-09,9.66327196e-09,5.93992556e-03
4.00000006e-01,1.88760607e-09,2.87646462e-09,1.63196319e-08,8.00558366e-03
4.39999998e-01,2.90062019e-09,4.43954251e-09,2.45689424e-08,1.06383059e-02
4.79999989e-01,4.60857841e-09,7.05916081e-09,3.74418647e-08,1.44959055e-02
5.19999981e-01,7.25097493e-09,1.11546141e-08,6.14915407e-08,1.87206604e-02
5.60000002e-01,1.15180043e-08,1.77171877e-08,9.23970873e-08,2.54251044e-02
6.00000024e-01,1.74992607e-08,2.70035798e-08,1.34549495e-07,3.27847004e-02
6.41029537e-01,3.03277261e-08,4.68106727e-08,2.79835035e-07,4.38260362e-02
6.83115125e-01,4.67290135e-08,7.24197946e-08,4.81410837e-07,5.67277186e-02
7.26283848e-01,8.07463110e-08,1.25291606e-07,1.75663820e-06,7.48450607e-02
7.70563781e-01,1.28789580e-07,2.00421269e-07,3.48962863e-06,1.00449853e-01
8.15983355e-01,2.56887773e-07,4.00690283e-07,1.21922485e-05,1.35827199e-01
8.62571895e-01,3.78749149e-07,5.95520646e-07,1.62916458e-05,1.84457660e-01
9.10359621e-01,7.35661501e-07,1.15679438e-06,2.81274442e-05,2.54181296e-01
9.59377348e-01,1.21480002e-06,1.92975585e-06,3.58815560e-05,3.47377479e-01
1.00965667e+00,2.27583496e-06,3.59446085e-06,4.90339917e-05,4.82495308e-01
1.06123006e+00,4.69895167e-06,7.37609207e-06,6.84423867e-05,6.62130415e-01
1.11413085e+00,9.13065105e-06,1.44044170e-05,9.35229400e-05,9.17784214e-01
1.16839325e+00,1.63862896e-05,2.59212429e-05,1.25758845e-04,1.28212082e+00
1.22405231e+00,2.49679379e-05,3.91573958e-05,1.60613927e-04,1.85414505e+00
1.28114390e+00,3.67675784e-05,5.69604235e-05,1.97342670e-04,2.52040410e+00
1.33970511e+00,4.76974856e-05,7.30355969e-05,2.12826097e-04,3.40820670e+00
1.39977336e+00,2.01965273e+04,2.82919883e+04,2.00441250e+04,2.09546021e+03
1.46138775e+00,2.58331836e+04,3.61672734e+04,2.42955078e+04,2.01246082e+03
1.52458799e+00,1.54653867e+04,2.16495547e+04,1.45841357e+04,1.32373926e+03
1.58941495e+00,1.45167080e+04,2.03280273e+04,1.40058496e+04,1.47841748e+03
1.65591037e+00,1.43045996e+04,2.00339883e+04,1.39523145e+04,1.57983264e+03
1.72411728e+00,1.42924102e+04,2.00187363e+04,1.40340762e+04,1.66096106e+03
1.79407966e+00,1.43341357e+04,2.00783945e+04,1.41382305e+04,1.72589734e+03
1.86584306e+00,1.43910605e+04,2.01590039e+04,1.42403672e+04,1.77945386e+03
1.93945324e+00,1.44624580e+04,2.02596992e+04,1.43467676e+04,1.82690271e+03
2.01495814e+00,1.45513379e+04,2.03847559e+04,1.44635410e+04,1.87070813e+03
2.09240627e+00,1.46636445e+04,2.05425234e+04,1.45983594e+04,1.91304639e+03
2.17184782e+00,1.47949043e+04,2.07267539e+04,1.47478301e+04,1.95412598e+03
2.25333428e+00,1.49199863e+04,2.09022500e+04,1.48870215e+04,1.99060962e+03
2.33691788e+00,1.50157207e+04,2.10365527e+04,1.49930713e+04,2.01945544e+03
2.42265272e+00,1.50717178e+04,2.11151133e+04,1.50556504e+04,2.03952563e+03
2.51059437e+00,1.50719658e+04,2.11155137e+04,1.50597812e+04,2.05012817e+03
2.60079956e+00,1.50122344e+04,2.10318633e+04,1.50024609e+04,2.05219800e+03
2.69332647e+00,1.48851572e+04,2.08538594e+04,1.48770010e+04,2.04596875e+03
2.78823495e+00,1.47392021e+04,2.06494492e+04,1.47342695e+04,2.04040698e+03
2.88558602e+00,1.46720410e+04,2.05554922e+04,1.46733184e+04,2.04923804e+03
2.98544264e+00,1.47035742e+04,2.05998438e+04,1.47130117e+04,2.07320996e+03
3.08786964e+00,1.48266084e+04,2.07723867e+04,1.48449883e+04,2.10984082e+03
3.19293284e+00,1.50081475e+04,2.10268652e+04,1.50352637e+04,2.15389136e+03
3.30070019e+00,1.51781660e+04,2.12651504e+04,1.52118223e+04,2.19456885e+03
3.41124129e+00,1.52833154e+04,2.14124961e+04,1.53210430e+04,2.22536719e+03
3.52462745e+00,1.53418467e+04,2.14945312e+04,1.53831133e+04,2.25127979e+03
3.64093208e+00,1.53773770e+04,2.15443320e+04,1.54210684e+04,2.27532397e+03
3.76023054e+00,1.53904229e+04,2.15626172e+04,1.54349531e+04,2.30109888e+03
3.88259912e+00,1.54871367e+04,2.16981328e+04,1.55332344e+04,2.33904932e+03
4.00811720e+00,1.56830625e+04,2.19726367e+04,1.57306982e+04,2.39665649e+03
4.13686609e+00,1.58618242e+04,2.22230156e+04,1.59075547e+04,2.45057471e+03
4.26892853e+00,1.59816133e+04,2.23907441e+04,1.60236299e+04,2.50627588e+03
4.40439081e+00,1.60507666e+04,2.24874805e+04,1.60865762e+04,2.55486475e+03
4.54333878e+00,1.59449727e+04,2.23390547e+04,1.59706289e+04,2.58711841e+03
4.68586397e+00,1.57054473e+04,2.20033320e+04,1.57231689e+04,2.60021997e+03
4.83205652e+00,1.54362930e+04,2.16261484e+04,1.54473584e+04,2.62720557e+03
4.98201227e+00,1.50450703e+04,2.10779766e+04,1.50500869e+04,2.63610132e+03
5.13582754e+00,1.47816973e+04,2.07090898e+04,1.47889355e+04,2.68152002e+03
5.29360199e+00,1.48921133e+04,2.08639375e+04,1.49054766e+04,2.70903223e+03
5.45543718e+00,1.51723643e+04,2.12566855e+04,1.51921426e+04,2.78197559e+03
5.62143755e+00,1.55538887e+04,2.17913320e+04,1.55824785e+04,2.85587109e+03
5.79171038e+00,1.59875127e+04,2.23987949e+04,1.60171699e+04,2.91497949e+03
5.96636629e+00,1.61589980e+04,2.26389414e+04,1.61873496e+04,2.92732617e+03
6.14551687e+00,1.61353379e+04,2.26056719e+04,1.61606543e+04,2.91969604e+03
6.32927942e+00,1.59377539e+04,2.23287695e+04,1.59596299e+04,2.89019580e+03
6.51777077e+00,1.56466133e+04,2.19211406e+04,1.56791768e+04,2.88210986e+03
6.71111441e+00,1.55508340e+04,2.17869062e+04,1.55796055e+04,2.86538232e+03
6.90943432e+00,1.53884600e+04,2.15592539e+04,1.54088740e+04,2.84441602e+03
7.11285782e+00,1.54968027e+04,2.17114766e+04,1.55382109e+04,2.89054956e+03
7.32151794e+00,1.62720039e+04,2.27979062e+04,1.63313672e+04,3.04234766e+03
7.53554821e+00,1.70757070e+04,2.39237422e+04,1.71293047e+04,3.17250342e+03
7.75508738e+00,1.72168965e+04,2.41210000e+04,1.72471484e+04,3.24337891e+03
7.98027754e+00,1.69200078e+04,2.37046211e+04,1.69321016e+04,3.27217725e+03
8.21126270e+00,1.66485801e+04,2.33239609e+04,1.66444375e+04,3.30073438e+03
8.44819450e+00,1.61865391e+04,2.26762695e+04,1.61660820e+04,3.29297925e+03
8.69122219e+00,1.55759375e+04,2.18210566e+04,1.55685781e+04,3.26316479e+03
8.94050789e+00,1.54499746e+04,2.16448945e+04,1.54565889e+04,3.24119336e+03
9.19620800e+00,1.53303662e+04,2.14769023e+04,1.53174170e+04,3.18323169e+03
9.45849037e+00,1.48016826e+04,2.07368398e+04,1.48195332e+04,3.09955542e+03
9.72752285e+00,1.55184902e+04,2.17423828e+04,1.56012822e+04,3.22057471e+03
1.00034800e+01,1.69104102e+04,2.36919141e+04,1.69721621e+04,3.37038843e+03
1.02865391e+01,1.63737783e+04,2.29396230e+04,1.64182012e+04,3.30251221e+03
1.05768833e+01,1.61459443e+04,2.26216797e+04,1.62560791e+04,3.36099731e+03
1.08747025e+01,1.80701992e+04,2.53173906e+04,1.81887109e+04,3.66049414e+03
1.11801853e+01,1.81217910e+04,2.53886719e+04,1.82095430e+04,3.68999146e+03
1.14935322e+01,1.78312773e+04,2.49822852e+04,1.79621895e+04,3.73342578e+03
1.18149433e+01,1.92099922e+04,2.69134102e+04,1.93343203e+04,3.94999365e+03
1.21446266e+01,1.93001055e+04,2.70390820e+04,1.94442695e+04,4.01428760e+03
1.24827967e+01,1.90658789e+04,2.67112539e+04,1.93141055e+04,4.07594263e+03
1.28296700e+01,1.88696074e+04,2.64366328e+04,1.92610469e+04,4.14631104e+03
1.31854706e+01,1.70979082e+04,2.39562305e+04,1.78243125e+04,4.05828003e+03
1.35504293e+01,1.61958604e+04,2.26933945e+04,1.74689980e+04,4.12164307e+03
1.39247818e+01,1.59949160e+04,2.24147266e+04,1.79138125e+04,4.30608887e+03
1.43087692e+01,1.64747773e+04,2.30937988e+04,1.91863555e+04,4.55963086e+03
1.47026405e+01,1.89965977e+04,2.66371172e+04,2.25652500e+04,4.99137451e+03
1.51066484e+01,1.94996055e+04,2.73588242e+04,2.34431680e+04,5.04917188e+03
1.55210552e+01,1.86058984e+04,2.61284941e+04,2.26692734e+04,4.96757031e+03
1.59461288e+01,2.00360781e+04,2.81457812e+04,2.40814629e+04,5.14818408e+03
1.63821430e+01,2.11559102e+04,2.97202266e+04,2.53143105e+04,5.25273242e+03
1.68293781e+01,2.16822109e+04,3.04622188e+04,2.62829492e+04,5.16825146e+03
1.72881241e+01,2.14272207e+04,3.00962266e+04,2.70948047e+04,5.05872705e+03
1.77586803e+01,2.57453223e+04,3.61660195e+04,3.22071680e+04,5.45171289e+03
1.82413464e+01,2.87515664e+04,4.03805469e+04,3.53706016e+04,5.50043799e+03
1.87364349e+01,2.69627363e+04,3.78668164e+04,3.50053984e+04,5.40600781e+03
1.92442665e+01,3.25312168e+04,4.57005391e+04,4.20745273e+04,6.20145215e+03
1.97651691e+01,3.51024609e+04,4.93153086e+04,4.51528711e+04,6.02769922e+03
2.02994785e+01,3.57175508e+04,5.02047852e+04,4.53621797e+04,5.60235059e+03
2.08475418e+01,4.92915273e+04,6.92327344e+04,5.58811172e+04,6.76800684e+03
2.14097099e+01,6.87588984e+04,9.64315469e+04,7.01126406e+04,8.07209961e+03
2.19863453e+01,6.51013984e+04,9.12130781e+04,6.29938633e+04,6.75815234e+03
2.25778236e+01,5.91206562e+04,8.27945859e+04,5.58428320e+04,6.16367773e+03
2.31845264e+01,5.92391133e+04,8.29393203e+04,5.52644180e+04,6.30662744e+03
2.38068466e+01,6.13813672e+04,8.59107969e+04,5.60591797e+04,6.51144922e+03
2.44451809e+01,6.55453594e+04,9.16907656e+04,5.92706797e+04,6.89487695e+03
2.50999470e+01,6.43807969e+04,9.00424844e+04,5.80488438e+04,6.25804004e+03
2.57715645e+01,5.55914531e+04,7.77408281e+04,4.94780234e+04,5.26017285e+03
2.64604683e+01,4.89350664e+04,6.84242891e+04,4.33366562e+04,4.67800586e+03
2.71671047e+01,4.16429609e+04,5.82189609e+04,3.66879062e+04,3.86400049e+03
2.78919277e+01,3.23116074e+04,4.51812656e+04,2.91457090e+04,3.78455688e+03
2.86354065e+01,3.20354434e+04,4.48308438e+04,3.04847402e+04,3.77140820e+03
2.93980217e+01,3.17503359e+04,4.44427812e+04,3.02393516e+04,3.60814307e+03
3.01802654e+01,3.43346406e+04,4.80619414e+04,3.25362402e+04,3.65715454e+03
3.09826431e+01,3.55437188e+04,4.97497305e+04,3.33898047e+04,3.62612622e+03
3.18056717e+01,3.41475156e+04,4.78067656e+04,3.28180469e+04,3.69414136e+03
3.26498833e+01,3.78377656e+04,5.29706680e+04,3.61185273e+04,2.89180298e+03
3.35158234e+01,4.38513672e+04,6.13964297e+04,4.20953438e+04,3.57697217e+03
3.44040565e+01,3.75526641e+04,5.25805117e+04,3.62303203e+04,2.64732227e+03
3.53151436e+01,3.21722676e+04,4.50252227e+04,2.97027812e+04,6.29918457e+02
3.62496834e+01,3.00959746e+04,4.20866328e+04,2.60361523e+04,2.76878998e+02
3.72082787e+01,1.14699102e+04,1.60117021e+04,8.63864844e+03,6.14012337e+00
3.81915474e+01,1.46707336e+03,2.03918323e+03,7.72434631e+02,6.22318208e-01
3.92001228e+01,1.86266785e+01,2.54681797e+01,4.29123545e+00,1.44813552e-01
4.02346535e+01,9.33279705e+00,1.28044710e+01,2.65437436e+00,2.59990538e-05
4.12958107e+01,2.40085292e+00,3.27855301e+00,3.35298002e-01,4.09374297e-05
4.23842850e+01,7.08603084e-01,9.60819781e-01,4.24054898e-02,9.51237098e-07
4.35007744e+01,3.11700314e-01,4.19404984e-01,9.17379465e-03,2.26037699e-07
4.46459999e+01,7.98120648e-02,1.06169440e-01,9.23372980e-04,7.36653334e-08
4.58207016e+01,6.01366907e-03,7.82454200e-03,3.97941949e-05,1.04582769e-08
4.70256386e+01,8.17835447e-04,1.07082981e-03,6.39232621e-06,2.12773021e-09
4.82615852e+01,5.85345369e-05,7.54773791e-05,4.11568578e-07,1.89353977e-10
4.95293465e+01,5.29134411e-07,6.85092914e-07,4.09179322e-08,3.46981450e-12
5.08297386e+01,3.69126894e-07,4.73922853e-07,4.49236026e-09,1.61457707e-12
5.21635971e+01,4.10494128e-09,5.83838178e-09,1.83640880e-10,2.73674312e-14
5.35317917e+01,2.49567450e-10,3.24126670e-10,1.90256903e-12,1.32225845e-15
5.49351997e+01,7.07936400e-12,9.52887682e-12,6.34051866e-14,4.16662124e-18
5.63747253e+01,4.95167025e-14,7.53406398e-14,1.81348759e-15,7.82123671e-19
5.78513031e+01,1.66095538e-15,2.15719217e-15,2.28999295e-17,5.43973746e-20
5.93278885e+01,7.07829700e-17,1.15071332e-16,1.71279471e-18,2.66496702e-22
6.08044662e+01,1.53008251e-18,1.61401528e-18,7.13766499e-19,5.85160801e-23
6.22810478e+01,4.18870097e-19,5.56789074e-19,1.17471380e-21,6.46428618e-26
6.37576256e+01,6.42895384e-22,8.01291485e-22,3.31008383e-22,3.30827063e-26
6.52341995e+01,1.91141149e-22,2.44128519e-22,1.50399507e-24,1.37327243e-28
6.67107849e+01,1.58690632e-24,1.98619142e-24,6.93972155e-26,1.31196725e-29
6.81873703e+01,1.28310593e-25,1.69435933e-25,2.24664735e-27,3.83928210e-31
6.96639481e+01,3.45168285e-27,4.49668974e-27,2.30037406e-28,2.99464768e-32
7.11405258e+01,1.82487640e-28,2.36889528e-28,7.11390749e-30,9.75378560e-34
7.26171036e+01,5.61257777e-30,7.25841318e-30,2.53967106e-31,3.63756756e-35
7.40936813e+01,1.80403247e-31,2.32987189e-31,6.94051905e-33,1.07812254e-36
7.55702591e+01,4.57235821e-33,5.88625270e-33,1.72822683e-34,2.93936366e-38
7.70468445e+01,9.95000522e-35,1.28645160e-34,3.52614584e-36,6.31985607e-40
7.85234222e+01,1.47945720e-36,1.92042479e-36,5.07424187e-38,0.00000000e+00
8.00000000e+01,5.95383692e-38,7.61297430e-38,2.74514369e-39,0.00000000e+00
