Height (km), 7_8 um ash conc (g/kg), 15_6 um ash conc (g/kg), 125 um ash conc (g/kg), 1 mm ash conc (g/kg)
0.00000000e+00,0.00000000e+00,0.00000000e+00,0.00000000e+00,0.00000000e+00
3.99999991e-02,6.80592647e-29,1.79344522e-28,1.65867586e-05,5.95086060e+01
7.99999982e-02,1.00425506e-26,2.73925478e-26,2.05701639e-04,6.13813858e+01
1.19999997e-01,1.56423229e-24,4.45707398e-24,5.68467658e-04,6.21275406e+01
1.59999996e-01,3.21533091e-22,1.01466364e-21,1.72226899e-03,6.19845581e+01
2.00000003e-01,1.32778088e-19,4.55519988e-19,4.27392730e-03,6.15573959e+01
2.39999995e-01,7.26555001e-18,2.29596436e-17,7.17600528e-03,6.18298416e+01
2.80000001e-01,1.61469012e-15,4.82637425e-15,1.45200612e-02,6.31824341e+01
3.19999993e-01,1.35411862e-14,4.27365696e-14,2.22944282e-02,6.62476349e+01
3.60000014e-01,1.34688539e-13,4.20324501e-13,3.01607773e-02,6.69138031e+01
4.00000006e-01,2.36340938e-12,7.45432709e-12,4.88069355e-02,6.83203506e+01
4.39999998e-01,1.90351658e-11,6.30011876e-11,5.65295294e-02,6.80194702e+01
4.79999989e-01,1.92490537e-10,6.01882100e-10,6.65009171e-02,6.83689194e+01
5.19999981e-01,1.13256715e-09,3.70686015e-09,6.68452829e-02,7.27577591e+01
5.60000002e-01,5.54535751e-09,1.87327878e-08,6.82033449e-02,7.23513489e+01
6.00000024e-01,2.68889480e-08,9.40384979e-08,6.72126710e-02,7.04756317e+01
6.41029537e-01,1.14354890e-07,4.12835561e-07,6.63639158e-02,7.41262970e+01
6.83115125e-01,3.50415235e-07,1.32835976e-06,6.71692938e-02,7.87889404e+01
7.26283848e-01,7.76325408e-07,3.11725853e-06,6.91080093e-02,8.07457733e+01
7.70563781e-01,1.35271762e-06,5.44454633e-06,7.26784915e-02,8.17594757e+01
8.15983355e-01,2.04971957e-06,7.66606172e-06,7.86535665e-02,8.40587769e+01
8.62571895e-01,2.83958025e-06,1.00067200e-05,8.49482119e-02,8.72915421e+01
9.10359621e-01,3.72697878e-06,1.24063263e-05,9.51986015e-02,8.99353333e+01
9.59377348e-01,4.54576866e-06,1.45620479e-05,1.07221648e-01,9.61676025e+01
1.00965667e+00,5.94867743e-06,1.75751138e-05,1.21412992e-01,9.34483032e+01
1.06123006e+00,9.17230864e-06,2.45823721e-05,1.38412178e-01,9.68442993e+01
1.11413085e+00,1.86137604e-05,4.59687581e-05,1.59425050e-01,9.90522156e+01
1.16839325e+00,4.80927301e-05,9.94695947e-05,1.87445477e-01,1.06639435e+02
1.22405231e+00,1.00422068e-04,1.84876873e-04,2.26399869e-01,1.03509521e+02
1.28114390e+00,1.68055733e-04,2.91063800e-04,3.02626252e-01,1.09410332e+02
1.33970511e+00,2.52472295e-04,4.17128031e-04,5.44793785e-01,1.10678329e+02
1.39977336e+00,2.06491094e+04,2.89084688e+04,1.93059688e+04,1.24523560e+03
1.46138775e+00,2.49482891e+04,3.48890742e+04,2.10912227e+04,1.32319458e+03
1.52458799e+00,1.51402217e+04,2.11681973e+04,1.28930098e+04,9.54916748e+02
1.58941495e+00,1.44809355e+04,2.02568223e+04,1.27673340e+04,1.07962622e+03
1.65591037e+00,1.37245352e+04,1.92002891e+04,1.21687646e+04,1.07516467e+03
1.72411728e+00,1.22851406e+04,1.71864238e+04,1.08784502e+04,9.86940430e+02
1.79407966e+00,1.07989512e+04,1.51080996e+04,9.60017383e+03,9.50191040e+02
1.86584306e+00,9.87915234e+03,1.38237031e+04,8.89226172e+03,9.54887756e+02
1.93945324e+00,9.68357910e+03,1.35534092e+04,8.87176465e+03,1.06168811e+03
2.01495814e+00,1.00752031e+04,1.41055938e+04,9.42655566e+03,1.21640356e+03
2.09240627e+00,1.11972207e+04,1.56811611e+04,1.07250332e+04,1.50380139e+03
2.17184782e+00,1.30953047e+04,1.83436289e+04,1.27965820e+04,1.86525708e+03
2.25333428e+00,1.52195293e+04,2.13218711e+04,1.50511895e+04,2.22716064e+03
2.33691788e+00,1.70323340e+04,2.38626367e+04,1.69437441e+04,2.49929321e+03
2.42265272e+00,1.85198086e+04,2.59469023e+04,1.84722461e+04,2.68191797e+03
2.51059437e+00,1.94521191e+04,2.72511465e+04,1.93080137e+04,2.68834009e+03
2.60079956e+00,1.91872266e+04,2.68763047e+04,1.88381328e+04,2.47795410e+03
2.69332647e+00,1.83204355e+04,2.56588086e+04,1.77926758e+04,2.24482153e+03
2.78823495e+00,1.73809902e+04,2.43401719e+04,1.66999434e+04,2.01740381e+03
2.88558602e+00,1.62876777e+04,2.28065039e+04,1.54786777e+04,1.83101074e+03
2.98544264e+00,1.52547285e+04,2.13583320e+04,1.43723066e+04,1.67942664e+03
3.08786964e+00,1.46524199e+04,2.05141074e+04,1.37307314e+04,1.63323877e+03
3.19293284e+00,1.43007529e+04,2.00210781e+04,1.33490391e+04,1.60806897e+03
3.30070019e+00,1.39269521e+04,1.94973281e+04,1.29730205e+04,1.60676599e+03
3.41124129e+00,1.35878906e+04,1.90224434e+04,1.26473164e+04,1.60045215e+03
3.52462745e+00,1.30754668e+04,1.83049004e+04,1.21616172e+04,1.59172266e+03
3.64093208e+00,1.23450205e+04,1.72824746e+04,1.14895996e+04,1.53972778e+03
3.76023054e+00,1.16406328e+04,1.62970947e+04,1.08672617e+04,1.52356970e+03
3.88259912e+00,1.11020176e+04,1.55439434e+04,1.04056973e+04,1.48317017e+03
4.00811720e+00,1.06269199e+04,1.48798086e+04,1.00117861e+04,1.51182666e+03
4.13686609e+00,1.03681387e+04,1.45191582e+04,9.85140625e+03,1.51235864e+03
4.26892853e+00,1.05543828e+04,1.47816660e+04,1.01147988e+04,1.61402344e+03
4.40439081e+00,1.09869082e+04,1.53890879e+04,1.06200752e+04,1.68019592e+03
4.54333878e+00,1.18437725e+04,1.65910859e+04,1.15533965e+04,1.86440210e+03
4.68586397e+00,1.32480234e+04,1.85594668e+04,1.30148359e+04,2.07135498e+03
4.83205652e+00,1.46536211e+04,2.05293125e+04,1.44707471e+04,2.32454419e+03
4.98201227e+00,1.58551152e+04,2.22126016e+04,1.57019209e+04,2.47001367e+03
5.13582754e+00,1.67989688e+04,2.35342305e+04,1.66465820e+04,2.60596484e+03
5.29360199e+00,1.73835391e+04,2.43524805e+04,1.72249492e+04,2.65241382e+03
5.45543718e+00,1.77833008e+04,2.49117812e+04,1.75936660e+04,2.65807349e+03
5.62143755e+00,1.79041523e+04,2.50798398e+04,1.76476875e+04,2.60612939e+03
5.79171038e+00,1.76749316e+04,2.47567383e+04,1.73126230e+04,2.47280176e+03
5.96636629e+00,1.73547656e+04,2.43066387e+04,1.68926250e+04,2.36181567e+03
6.14551687e+00,1.72458516e+04,2.41524160e+04,1.66612324e+04,2.25111572e+03
6.32927942e+00,1.68617695e+04,2.36133047e+04,1.61959805e+04,2.17597900e+03
6.51777077e+00,1.73869492e+04,2.43478594e+04,1.66121641e+04,2.17518384e+03
6.71111441e+00,1.72229414e+04,2.41153281e+04,1.63144561e+04,2.12861475e+03
6.90943432e+00,1.65646445e+04,2.31937969e+04,1.56959268e+04,2.07768018e+03
7.11285782e+00,1.73857500e+04,2.43413340e+04,1.63610820e+04,2.14608398e+03
7.32151794e+00,1.64674590e+04,2.30524141e+04,1.53676953e+04,2.02755200e+03
7.53554821e+00,1.34167695e+04,1.87808691e+04,1.25372119e+04,1.76156848e+03
7.75508738e+00,1.05376846e+04,1.47525596e+04,9.99526758e+03,1.55402991e+03
7.98027754e+00,8.96130469e+03,1.25482744e+04,8.68959473e+03,1.46481738e+03
8.21126270e+00,8.65110254e+03,1.21164531e+04,8.57412305e+03,1.50193506e+03
8.44819450e+00,9.30107520e+03,1.30287363e+04,9.35884668e+03,1.64205847e+03
8.69122219e+00,1.00607324e+04,1.40938848e+04,1.02161318e+04,1.78029883e+03
8.94050789e+00,1.04865342e+04,1.46923994e+04,1.08108955e+04,1.90264771e+03
9.19620800e+00,1.11298916e+04,1.55977275e+04,1.16975781e+04,2.06633032e+03
9.45849037e+00,1.23317080e+04,1.72832305e+04,1.30154072e+04,2.23524463e+03
9.72752285e+00,1.36663076e+04,1.91521094e+04,1.44235000e+04,2.40573853e+03
1.00034800e+01,1.53653066e+04,2.15358613e+04,1.63741211e+04,2.69704443e+03
1.02865391e+01,1.89873789e+04,2.66125117e+04,2.00593262e+04,3.12129834e+03
1.05768833e+01,2.24029355e+04,3.13932188e+04,2.32492383e+04,3.33786987e+03
1.08747025e+01,2.13908672e+04,2.99723164e+04,2.22927754e+04,3.10340527e+03
1.11801853e+01,2.14196914e+04,3.00100840e+04,2.24385820e+04,2.96820996e+03
1.14935322e+01,2.11556680e+04,2.96368379e+04,2.22706094e+04,2.78540088e+03
1.18149433e+01,1.88731094e+04,2.64321680e+04,2.02177891e+04,2.44650000e+03
1.21446266e+01,1.54654336e+04,2.16604102e+04,1.73732012e+04,2.19785693e+03
1.24827967e+01,1.37158242e+04,1.92244570e+04,1.62630020e+04,2.19661133e+03
1.28296700e+01,1.42330166e+04,1.99666133e+04,1.71939453e+04,2.39120190e+03
1.31854706e+01,1.42761016e+04,2.00376211e+04,1.78684297e+04,2.57857666e+03
1.35504293e+01,1.41718984e+04,1.99036621e+04,1.84990352e+04,2.73581543e+03
1.39247818e+01,1.45024512e+04,2.03816582e+04,2.03490020e+04,2.86527393e+03
1.43087692e+01,1.63257441e+04,2.29534844e+04,2.46112207e+04,3.07548853e+03
1.47026405e+01,1.81583027e+04,2.55840781e+04,2.91305977e+04,3.36016797e+03
1.51066484e+01,2.26782207e+04,3.19795801e+04,3.35738281e+04,3.45242480e+03
1.55210552e+01,2.84863828e+04,4.01364688e+04,3.74837266e+04,3.56478076e+03
1.59461288e+01,3.24719375e+04,4.57195664e+04,3.90885938e+04,3.79676758e+03
1.63821430e+01,3.65544062e+04,5.13743828e+04,3.98698828e+04,3.90207324e+03
1.68293781e+01,4.15528672e+04,5.83401562e+04,4.09952109e+04,3.85658203e+03
1.72881241e+01,4.79607109e+04,6.72612500e+04,4.26757383e+04,3.98068945e+03
1.77586803e+01,5.34628008e+04,7.49090469e+04,4.27404961e+04,3.86200317e+03
1.82413464e+01,4.91241250e+04,6.87432891e+04,3.54630234e+04,3.54261890e+03
1.87364349e+01,4.01603750e+04,5.60825469e+04,2.85210605e+04,3.14274658e+03
1.92442665e+01,3.70313398e+04,5.15776016e+04,2.59523105e+04,2.56689355e+03
1.97651691e+01,3.51699062e+04,4.88564141e+04,2.55570977e+04,2.33147803e+03
2.02994785e+01,3.14043242e+04,4.36371484e+04,2.42505078e+04,2.01588074e+03
2.08475418e+01,2.87684824e+04,4.00329883e+04,2.14059688e+04,1.45262549e+03
2.14097099e+01,2.44624727e+04,3.40062070e+04,1.63985273e+04,1.18236646e+03
2.19863453e+01,2.13479062e+04,2.96855742e+04,1.55658555e+04,1.32991650e+03
2.25778236e+01,2.27935254e+04,3.17406113e+04,1.75809766e+04,1.36693738e+03
2.31845264e+01,2.87840625e+04,4.01519219e+04,2.37040352e+04,2.02202600e+03
2.38068466e+01,3.13457715e+04,4.37842656e+04,2.72433398e+04,2.79458545e+03
2.44451809e+01,2.96253633e+04,4.14155117e+04,2.67811133e+04,2.84182520e+03
2.50999470e+01,3.05933242e+04,4.27876094e+04,2.79452344e+04,2.65387598e+03
2.57715645e+01,2.77512422e+04,3.87881562e+04,2.37751816e+04,1.59237280e+03
2.64604683e+01,1.27032480e+04,1.77233809e+04,9.49525977e+03,3.49978699e+02
2.71671047e+01,2.54042212e+03,3.52798535e+03,1.43197485e+03,1.40683136e+01
2.78919277e+01,4.18919495e+02,5.70988403e+02,8.00700836e+01,3.72800068e-03
2.86354065e+01,1.81120544e+02,2.41167923e+02,7.14669609e+00,4.88732010e-04
2.93980217e+01,9.15848541e+01,1.20132454e+02,3.39118648e+00,2.47486005e-05
3.01802654e+01,4.65554733e+01,6.06542053e+01,1.86936796e+00,6.42945597e-05
3.09826431e+01,2.00291576e+01,2.59730911e+01,6.54336274e-01,6.85186660e-06
3.18056717e+01,6.90060329e+00,8.97896767e+00,2.07196951e-01,5.28010423e-06
3.26498833e+01,3.23453665e+00,4.23563671e+00,8.86714607e-02,3.94989092e-06
3.35158234e+01,1.36716771e+00,1.75639164e+00,1.05803730e-02,1.75047080e-06
3.44040565e+01,3.37452799e-01,4.17698056e-01,7.54598586e-05,4.08853225e-07
3.53151436e+01,6.06345460e-02,7.17761815e-02,1.12870457e-05,9.28191781e-08
3.62496834e+01,1.10108769e-02,1.25972563e-02,7.30836109e-06,3.92993513e-08
3.72082787e+01,1.73183833e-03,1.92533433e-03,2.14804936e-06,1.04097913e-08
3.81915474e+01,2.83666857e-04,3.16883845e-04,6.89645617e-07,2.93718294e-09
3.92001228e+01,4.65445155e-05,5.37376254e-05,1.73258755e-07,5.89798932e-10
4.02346535e+01,6.69486144e-06,7.96972199e-06,3.02618055e-08,6.54638843e-11
4.12958107e+01,5.59753289e-07,6.72213105e-07,2.41084819e-09,2.61231011e-12
4.23842850e+01,1.04065698e-08,1.29573525e-08,3.77315297e-11,2.32421199e-14
4.35007744e+01,1.11581833e-09,1.36060052e-09,4.49426477e-12,4.15012178e-15
4.46459999e+01,4.42375962e-11,5.31771016e-11,2.47120331e-13,1.89584780e-16
4.58207016e+01,1.06915496e-12,1.23802943e-12,1.15850356e-14,6.45582291e-18
4.70256386e+01,5.11141490e-14,6.14442647e-14,4.56425609e-16,2.17935828e-19
4.82615852e+01,1.56243676e-15,1.85289855e-15,1.40127655e-17,6.71366765e-21
4.95293465e+01,4.32722895e-17,5.12343528e-17,4.04043479e-19,1.82763522e-22
5.08297386e+01,1.23373172e-18,1.44107177e-18,1.09095365e-20,4.28266077e-24
5.21635971e+01,2.49523410e-20,2.81921991e-20,2.88377532e-22,8.32632024e-26
5.35317917e+01,7.21068042e-22,7.70409234e-22,6.11316951e-24,1.24921854e-27
5.49351997e+01,1.77460619e-23,1.86024935e-23,1.04334028e-25,1.64328694e-29
5.63747253e+01,3.63929220e-25,3.96086888e-25,1.41741578e-27,1.81141564e-31
5.78513031e+01,7.03981167e-27,7.96457620e-27,2.42939226e-29,5.57627851e-33
5.93278885e+01,1.02199268e-28,1.17922247e-28,3.34001297e-31,8.09548954e-35
6.08044662e+01,1.72325046e-30,1.96709218e-30,7.76838005e-33,3.48249708e-36
6.22810478e+01,3.31625970e-32,5.03640555e-32,3.15348308e-34,1.78411919e-37
6.37576256e+01,2.25849621e-33,3.14496571e-33,2.13697584e-35,8.70766866e-39
6.52341995e+01,8.68220874e-35,1.08581917e-34,6.47656384e-37,3.05483065e-40
6.67107849e+01,5.56708428e-36,6.73023465e-36,3.90163531e-38,7.00649232e-42
6.81873703e+01,1.62246540e-37,1.32519394e-37,9.44475165e-40,0.00000000e+00
6.96639481e+01,9.18270884e-39,9.91979183e-39,5.04467447e-41,0.00000000e+00
7.11405258e+01,1.54142831e-40,1.62550622e-40,0.00000000e+00,0.00000000e+00
7.26171036e+01,1.26116862e-41,1.54142831e-41,0.00000000e+00,0.00000000e+00
7.40936813e+01,0.00000000e+00,0.00000000e+00,0.00000000e+00,0.00000000e+00
7.55702591e+01,0.00000000e+00,0.00000000e+00,0.00000000e+00,0.00000000e+00
7.70468445e+01,0.00000000e+00,0.00000000e+00,0.00000000e+00,0.00000000e+00
7.85234222e+01,0.00000000e+00,0.00000000e+00,0.00000000e+00,0.00000000e+00
8.00000000e+01,0.00000000e+00,0.00000000e+00,0.00000000e+00,0.00000000e+00
