Height (km), 7_8 um ash conc (g/kg), 15_6 um ash conc (g/kg), 125 um ash conc (g/kg), 1 mm ash conc (g/kg)
0.00000000e+00,0.00000000e+00,0.00000000e+00,0.00000000e+00,0.00000000e+00
3.99999991e-02,2.42834459e-20,3.19283509e-20,7.92431676e-21,2.17056031e-17
7.99999982e-02,3.64956300e-19,4.83520621e-19,1.55812833e-19,4.59789728e-15
1.19999997e-01,4.77151485e-18,6.33037973e-18,2.27385395e-18,2.82294912e-13
1.59999996e-01,6.93425177e-17,9.24374004e-17,3.96686540e-17,9.14914151e-12
2.00000003e-01,5.89338526e-16,7.88645590e-16,4.06144675e-16,2.54370747e-10
2.39999995e-01,3.56464414e-15,4.84940465e-15,3.04669789e-15,8.57287130e-09
2.80000001e-01,4.54726453e-14,6.22431590e-14,4.24882196e-14,1.71021966e-05
3.19999993e-01,2.71806178e-13,3.78411115e-13,3.26937777e-13,3.87585933e-05
3.60000014e-01,1.95194663e-12,2.71461868e-12,2.19776909e-12,2.38701527e-04
4.00000006e-01,1.19874978e-11,1.67596301e-11,1.37528487e-11,6.56895747e-04
4.39999998e-01,5.11550940e-11,7.20100785e-11,6.58775257e-11,1.75707357e-03
4.79999989e-01,2.86998897e-10,4.00725425e-10,2.93045060e-10,5.70604391e-03
5.19999981e-01,9.56005164e-10,1.34907441e-09,1.17169618e-09,1.01158302e-02
5.60000002e-01,3.97104571e-09,5.53619905e-09,3.67727160e-09,2.89490409e-02
6.00000024e-01,9.90340165e-09,1.39592862e-08,1.08642908e-08,4.89904657e-02
6.41029537e-01,3.05029708e-08,4.24069739e-08,2.51895784e-08,1.16911054e-01
6.83115125e-01,5.63287230e-08,7.92292880e-08,5.52428290e-08,1.66087672e-01
7.26283848e-01,1.10600915e-07,1.54221240e-07,9.20942682e-08,3.29040647e-01
7.70563781e-01,1.91264178e-07,2.66868710e-07,1.59797565e-07,4.88147020e-01
8.15983355e-01,3.78594081e-07,5.24329607e-07,2.74097971e-07,9.48365569e-01
8.62571895e-01,4.84245049e-07,6.80287826e-07,4.28014204e-07,1.28314400e+00
9.10359621e-01,9.07618926e-07,1.25979102e-06,6.30499017e-07,2.05393386e+00
9.59377348e-01,1.24618964e-06,1.75212449e-06,1.00626880e-06,2.96590877e+00
1.00965667e+00,2.09913378e-06,2.92968753e-06,1.45780609e-06,4.17593718e+00
1.06123006e+00,3.63225740e-06,5.07703726e-06,2.40341160e-06,6.00667572e+00
1.11413085e+00,5.59071987e-06,7.87040517e-06,3.77980632e-06,8.13059330e+00
1.16839325e+00,7.57120597e-06,1.06858624e-05,5.27369684e-06,1.06585293e+01
1.22405231e+00,9.43612667e-06,1.32908526e-05,6.82798600e-06,1.34122496e+01
1.28114390e+00,1.36739527e-05,1.93357409e-05,1.18200051e-05,1.69032974e+01
1.33970511e+00,2.17413854e-05,3.09900061e-05,2.28679110e-05,2.06397190e+01
1.39977336e+00,2.01837734e+04,2.82738203e+04,2.00104766e+04,2.10006812e+03
1.46138775e+00,2.54958828e+04,3.56941680e+04,2.39288828e+04,1.97862549e+03
1.52458799e+00,1.49198730e+04,2.08855938e+04,1.40485957e+04,1.28686633e+03
1.58941495e+00,1.39796133e+04,1.95756211e+04,1.34672988e+04,1.43313013e+03
1.65591037e+00,1.38171230e+04,1.93509824e+04,1.34573682e+04,1.53718835e+03
1.72411728e+00,1.38341689e+04,1.93766211e+04,1.35647012e+04,1.61966699e+03
1.79407966e+00,1.39048906e+04,1.94768633e+04,1.36957529e+04,1.68605200e+03
1.86584306e+00,1.39887510e+04,1.95951777e+04,1.38227207e+04,1.74076526e+03
1.93945324e+00,1.40687402e+04,1.97078594e+04,1.39349355e+04,1.78522852e+03
2.01495814e+00,1.41314434e+04,1.97961582e+04,1.40216152e+04,1.82017444e+03
2.09240627e+00,1.41267266e+04,1.97898691e+04,1.40343535e+04,1.84200061e+03
2.17184782e+00,1.40812422e+04,1.97264199e+04,1.40033604e+04,1.85325635e+03
2.25333428e+00,1.40230547e+04,1.96451328e+04,1.39578037e+04,1.86231958e+03
2.33691788e+00,1.39601904e+04,1.95573008e+04,1.39078691e+04,1.87118262e+03
2.42265272e+00,1.39683301e+04,1.95689961e+04,1.39308389e+04,1.89021143e+03
2.51059437e+00,1.40889346e+04,1.97382617e+04,1.40670938e+04,1.92650037e+03
2.60079956e+00,1.43018398e+04,2.00367969e+04,1.42944043e+04,1.97574255e+03
2.69332647e+00,1.45552227e+04,2.03919785e+04,1.45598652e+04,2.02521118e+03
2.78823495e+00,1.47789189e+04,2.07054844e+04,1.47922188e+04,2.06519897e+03
2.88558602e+00,1.49418184e+04,2.09337578e+04,1.49605088e+04,2.10106470e+03
2.98544264e+00,1.50195762e+04,2.10426895e+04,1.50401709e+04,2.11570801e+03
3.08786964e+00,1.50025938e+04,2.10188477e+04,1.50223350e+04,2.11890039e+03
3.19293284e+00,1.49246162e+04,2.09095527e+04,1.49424844e+04,2.11186963e+03
3.30070019e+00,1.48159512e+04,2.07572578e+04,1.48311895e+04,2.10291479e+03
3.41124129e+00,1.46810781e+04,2.05682500e+04,1.46936328e+04,2.09189453e+03
3.52462745e+00,1.45425283e+04,2.03741270e+04,1.45534619e+04,2.08509082e+03
3.64093208e+00,1.44362432e+04,2.02252344e+04,1.44471475e+04,2.08706250e+03
3.76023054e+00,1.43755762e+04,2.01402754e+04,1.43879766e+04,2.09608789e+03
3.88259912e+00,1.43631172e+04,2.01228730e+04,1.43777949e+04,2.11927588e+03
4.00811720e+00,1.44043857e+04,2.01807422e+04,1.44219414e+04,2.14943921e+03
4.13686609e+00,1.44753828e+04,2.02802461e+04,1.44957471e+04,2.19206348e+03
4.26892853e+00,1.45433867e+04,2.03755332e+04,1.45657129e+04,2.23368677e+03
4.40439081e+00,1.46354102e+04,2.05044785e+04,1.46602900e+04,2.28249951e+03
4.54333878e+00,1.47485439e+04,2.06630000e+04,1.47758906e+04,2.33899561e+03
4.68586397e+00,1.48454492e+04,2.07987559e+04,1.48737578e+04,2.39807422e+03
4.83205652e+00,1.49166943e+04,2.08985566e+04,1.49460449e+04,2.45492236e+03
4.98201227e+00,1.49666934e+04,2.09685859e+04,1.49962666e+04,2.51237256e+03
5.13582754e+00,1.49789150e+04,2.09856699e+04,1.50071963e+04,2.56584766e+03
5.29360199e+00,1.49661250e+04,2.09677422e+04,1.49945957e+04,2.61744678e+03
5.45543718e+00,1.49652178e+04,2.09664551e+04,1.49931895e+04,2.67057324e+03
5.62143755e+00,1.49474873e+04,2.09415664e+04,1.49733613e+04,2.71442798e+03
5.79171038e+00,1.49223770e+04,2.09063945e+04,1.49487168e+04,2.75328833e+03
5.96636629e+00,1.49461797e+04,2.09397324e+04,1.49720674e+04,2.79298584e+03
6.14551687e+00,1.49434688e+04,2.09359258e+04,1.49691514e+04,2.81620508e+03
6.32927942e+00,1.49988652e+04,2.10135781e+04,1.50270801e+04,2.83614868e+03
6.51777077e+00,1.51145742e+04,2.11756914e+04,1.51437832e+04,2.84718555e+03
6.71111441e+00,1.52091299e+04,2.13081719e+04,1.52398242e+04,2.85000537e+03
6.90943432e+00,1.53705098e+04,2.15342695e+04,1.54032480e+04,2.85915723e+03
7.11285782e+00,1.56160615e+04,2.18782578e+04,1.56494453e+04,2.88930469e+03
7.32151794e+00,1.58385830e+04,2.21899199e+04,1.58700840e+04,2.93273535e+03
7.53554821e+00,1.59602656e+04,2.23602617e+04,1.59878105e+04,2.98948926e+03
7.75508738e+00,1.60099512e+04,2.24297500e+04,1.60334766e+04,3.06968433e+03
7.98027754e+00,1.59696191e+04,2.23730605e+04,1.59848730e+04,3.17409448e+03
8.21126270e+00,1.57215928e+04,2.20254707e+04,1.57312363e+04,3.29063940e+03
8.44819450e+00,1.55739053e+04,2.18185000e+04,1.55796924e+04,3.46040137e+03
8.69122219e+00,1.54207480e+04,2.16038633e+04,1.54225117e+04,3.65465527e+03
8.94050789e+00,1.54642852e+04,2.16650234e+04,1.54738672e+04,3.89134009e+03
9.19620800e+00,1.57396982e+04,2.20507383e+04,1.57427842e+04,4.13053027e+03
9.45849037e+00,1.56066250e+04,2.18645391e+04,1.56217500e+04,4.29321387e+03
9.72752285e+00,1.61126777e+04,2.25735078e+04,1.61284629e+04,4.48668848e+03
1.00034800e+01,1.59079980e+04,2.22865742e+04,1.59160957e+04,4.52252148e+03
1.02865391e+01,1.59176006e+04,2.23006992e+04,1.59618857e+04,4.56728906e+03
1.05768833e+01,1.69915977e+04,2.38047031e+04,1.70073379e+04,4.64577539e+03
1.08747025e+01,1.56847930e+04,2.19744531e+04,1.57331611e+04,4.43746729e+03
1.11801853e+01,1.74020293e+04,2.43809727e+04,1.74991641e+04,4.62316553e+03
1.14935322e+01,1.80065449e+04,2.52263672e+04,1.80403965e+04,4.57946631e+03
1.18149433e+01,1.57224912e+04,2.20285586e+04,1.58750166e+04,4.30357324e+03
1.21446266e+01,1.97342793e+04,2.76485859e+04,1.98906152e+04,4.77694678e+03
1.24827967e+01,1.79927500e+04,2.52072480e+04,1.81030078e+04,4.45548584e+03
1.28296700e+01,1.81594512e+04,2.54429590e+04,1.84292695e+04,4.57886963e+03
1.31854706e+01,2.28689102e+04,3.20413340e+04,2.32752363e+04,5.36307910e+03
1.35504293e+01,2.45077227e+04,3.43361328e+04,2.50292891e+04,5.79703955e+03
1.39247818e+01,2.08039922e+04,2.91469590e+04,2.15694629e+04,5.59348340e+03
1.43087692e+01,1.62347520e+04,2.27487578e+04,1.75664297e+04,5.32214648e+03
1.47026405e+01,1.57543594e+04,2.20835156e+04,1.81447852e+04,5.49057129e+03
1.51066484e+01,1.91616797e+04,2.68735586e+04,2.29328828e+04,6.09174463e+03
1.55210552e+01,2.23586133e+04,3.13739766e+04,2.74565020e+04,6.57276465e+03
1.59461288e+01,2.31056152e+04,3.24387793e+04,2.95014316e+04,6.47878418e+03
1.63821430e+01,2.28510117e+04,3.21023789e+04,3.02918320e+04,6.15774365e+03
1.68293781e+01,2.55046172e+04,3.58367812e+04,3.36430508e+04,6.14396777e+03
1.72881241e+01,2.84412969e+04,3.99572148e+04,3.66592969e+04,6.08962549e+03
1.77586803e+01,2.99187070e+04,4.20363008e+04,3.79414375e+04,6.00918750e+03
1.82413464e+01,3.13125918e+04,4.40026094e+04,3.95192461e+04,6.14477979e+03
1.87364349e+01,4.00396641e+04,5.62407539e+04,4.83038984e+04,6.85420703e+03
1.92442665e+01,4.67861328e+04,6.56812344e+04,5.34863672e+04,6.71987109e+03
1.97651691e+01,4.65303281e+04,6.53067031e+04,5.21870898e+04,6.25894336e+03
2.02994785e+01,5.45312422e+04,7.64972812e+04,5.81352109e+04,6.86012500e+03
2.08475418e+01,5.86094336e+04,8.21625938e+04,5.88504062e+04,6.50722461e+03
2.14097099e+01,6.03902930e+04,8.46233438e+04,5.66139805e+04,5.85132422e+03
2.19863453e+01,6.19488047e+04,8.67193750e+04,5.26022266e+04,5.58288330e+03
2.25778236e+01,6.41225234e+04,8.96399531e+04,5.20815938e+04,6.15586572e+03
2.31845264e+01,6.78115078e+04,9.47346641e+04,5.52998594e+04,6.75950293e+03
2.38068466e+01,6.54942734e+04,9.14873594e+04,5.49618984e+04,6.79697070e+03
2.44451809e+01,6.08753594e+04,8.50790000e+04,5.30432422e+04,6.37352539e+03
2.50999470e+01,5.51732773e+04,7.71046406e+04,4.76683828e+04,5.40775488e+03
2.57715645e+01,5.03936094e+04,7.04369297e+04,4.42087773e+04,4.93689648e+03
2.64604683e+01,3.98955625e+04,5.57436055e+04,3.47285664e+04,4.03232178e+03
2.71671047e+01,3.89788711e+04,5.44897461e+04,3.50983906e+04,3.97600366e+03
2.78919277e+01,3.65800273e+04,5.11337500e+04,3.26521484e+04,3.31994678e+03
2.86354065e+01,2.41074609e+04,3.36747852e+04,2.04581094e+04,1.51301233e+03
2.93980217e+01,1.15313672e+04,1.60570225e+04,8.07065479e+03,3.06501587e+02
3.01802654e+01,4.13733350e+03,5.73175879e+03,2.12438257e+03,2.36936531e+01
3.09826431e+01,2.97725049e+03,4.12238232e+03,1.47743213e+03,7.26515770e-01
3.18056717e+01,2.76886475e+03,3.82625049e+03,1.16318042e+03,4.46688980e-02
3.26498833e+01,1.46163440e+03,2.01070288e+03,4.46696411e+02,2.03172164e-03
3.35158234e+01,9.02030518e+02,1.24076135e+03,1.90683197e+02,1.36742528e-04
3.44040565e+01,5.44030518e+02,7.46788208e+02,7.31395569e+01,1.83759170e-04
3.53151436e+01,5.29808472e+02,7.26099121e+02,5.49965744e+01,9.94186194e-05
3.62496834e+01,3.39685791e+02,4.62646576e+02,2.89046364e+01,9.58114106e-05
3.72082787e+01,1.78583481e+02,2.42117355e+02,1.23134823e+01,3.94066374e-05
3.81915474e+01,8.84944000e+01,1.19566467e+02,4.30343628e+00,3.56989476e-05
3.92001228e+01,3.73400726e+01,5.02024994e+01,1.12184322e+00,2.04615735e-05
4.02346535e+01,1.38436604e+01,1.84979782e+01,2.79134989e-01,7.76059824e-06
4.12958107e+01,5.12782955e+00,6.79159355e+00,6.70546368e-02,2.70524561e-06
4.23842850e+01,1.22072136e+00,1.60321712e+00,1.05276918e-02,5.11250164e-07
4.35007744e+01,1.13608137e-01,1.46250367e-01,1.37911120e-04,5.92214100e-08
4.46459999e+01,1.55042214e-02,1.97681002e-02,1.86998477e-05,8.67155592e-09
4.58207016e+01,1.97196519e-03,2.49180617e-03,4.29802185e-06,1.51369184e-09
4.70256386e+01,4.99156849e-05,6.18457780e-05,4.05943155e-07,8.35170960e-11
4.82615852e+01,1.47304445e-06,1.90206913e-06,3.58357113e-08,6.78530366e-12
4.95293465e+01,1.47669013e-07,1.86070551e-07,7.08434200e-10,1.79975704e-13
5.08297386e+01,1.73645209e-09,2.21456298e-09,1.88311033e-11,1.44949530e-15
5.21635971e+01,7.27919461e-11,9.20227436e-11,7.08293667e-13,9.95059896e-17
5.35317917e+01,9.15737321e-13,1.15694303e-12,3.76913949e-15,2.03364628e-18
5.49351997e+01,3.40165518e-14,4.41983181e-14,3.09015407e-16,1.27959658e-19
5.63747253e+01,8.94199315e-17,9.18998455e-17,1.61064440e-17,1.06984867e-21
5.78513031e+01,7.32223653e-17,8.01460325e-17,4.85986653e-19,8.15913218e-23
5.93278885e+01,2.32158103e-18,3.46780707e-18,9.00473823e-21,8.21304289e-25
6.08044662e+01,4.75122398e-20,5.15847957e-20,4.05919170e-22,7.08078652e-26
6.22810478e+01,2.72309534e-21,3.95342371e-21,7.38678150e-24,9.13564869e-28
6.37576256e+01,4.57814574e-23,4.99539226e-23,4.65212230e-25,8.28753174e-29
6.52341995e+01,3.46185297e-24,4.87318943e-24,9.14235863e-27,1.37798915e-30
6.67107849e+01,7.71711008e-26,8.82072587e-26,7.75064554e-28,1.45208923e-31
6.81873703e+01,6.71434954e-27,9.42199750e-27,1.97961539e-29,3.17430201e-33
6.96639481e+01,1.70703404e-28,1.97599112e-28,1.54179193e-30,2.79268598e-34
7.11405258e+01,1.28305122e-29,1.88631883e-29,4.25099224e-32,6.31504135e-36
7.26171036e+01,3.26007865e-31,3.76777396e-31,3.13381504e-33,4.97631936e-37
7.40936813e+01,2.98500774e-32,4.74352937e-32,7.98642686e-35,1.03583982e-38
7.55702591e+01,6.03828902e-34,6.20323109e-34,5.92751062e-36,7.83325842e-40
7.70468445e+01,6.52764066e-35,1.00517762e-34,1.69558515e-37,4.20389539e-42
7.85234222e+01,1.15412897e-36,6.81668611e-37,5.35296013e-39,0.00000000e+00
8.00000000e+01,7.38580969e-37,8.59874584e-37,2.22386066e-39,0.00000000e+00
