Height (km), 7_8 um ash conc (g/kg), 15_6 um ash conc (g/kg), 125 um ash conc (g/kg), 1 mm ash conc (g/kg)
0.00000000e+00,0.00000000e+00,0.00000000e+00,0.00000000e+00,0.00000000e+00
3.99999991e-02,2.80263375e-05,7.73950742e-05,7.29806572e-02,1.19548578e+01
7.99999982e-02,6.58965801e-05,1.55657181e-04,8.44545960e-02,1.27524576e+01
1.19999997e-01,1.29428983e-04,2.76835635e-04,9.20071676e-02,1.29882727e+01
1.59999996e-01,2.32825783e-04,4.63346340e-04,1.03767052e-01,1.38451195e+01
2.00000003e-01,3.76864336e-04,7.06669118e-04,1.16409779e-01,1.42527456e+01
2.39999995e-01,5.38459048e-04,9.67742701e-04,1.30854025e-01,1.51536770e+01
2.80000001e-01,7.08792475e-04,1.24729425e-03,1.45140484e-01,1.57773266e+01
3.19999993e-01,9.14384960e-04,1.58433756e-03,1.60813570e-01,1.68276577e+01
3.60000014e-01,1.18878251e-03,2.03697989e-03,1.77809402e-01,1.70074463e+01
4.00000006e-01,1.55513920e-03,2.63937470e-03,1.96687400e-01,1.80791397e+01
4.39999998e-01,2.05225591e-03,3.44961137e-03,2.16099367e-01,1.89063454e+01
4.79999989e-01,2.69565755e-03,4.48146509e-03,2.38378555e-01,2.09005585e+01
5.19999981e-01,3.49637796e-03,5.75738447e-03,2.61729330e-01,2.10333138e+01
5.60000002e-01,4.55587404e-03,7.41614029e-03,2.92622507e-01,2.26212120e+01
6.00000024e-01,5.84955420e-03,9.37788375e-03,3.26767653e-01,2.36815567e+01
6.41029537e-01,7.37875374e-03,1.16614252e-02,3.67562622e-01,2.56421833e+01
6.83115125e-01,8.96362495e-03,1.40322298e-02,4.12859321e-01,2.62787838e+01
7.26283848e-01,1.09478701e-02,1.70526318e-02,4.56936508e-01,2.75949078e+01
7.70563781e-01,1.34563111e-02,2.09118389e-02,5.07596433e-01,3.01918640e+01
8.15983355e-01,1.68604907e-02,2.61561628e-02,5.61879635e-01,3.04538479e+01
8.62571895e-01,2.14319583e-02,3.31469029e-02,6.22584403e-01,3.21203957e+01
9.10359621e-01,2.70285159e-02,4.16310318e-02,7.00480342e-01,3.37787170e+01
9.59377348e-01,3.35695893e-02,5.12676463e-02,7.79524922e-01,3.52784233e+01
1.00965667e+00,4.12480831e-02,6.28171340e-02,8.82405519e-01,3.76067123e+01
1.06123006e+00,4.97528464e-02,7.54068494e-02,9.99997973e-01,3.93454857e+01
1.11413085e+00,6.04594052e-02,9.14760679e-02,1.12605083e+00,4.04706268e+01
1.16839325e+00,7.26374388e-02,1.09730713e-01,1.27817464e+00,4.49922523e+01
1.22405231e+00,8.73255283e-02,1.31657794e-01,1.44741976e+00,4.75674324e+01
1.28114390e+00,1.04282282e-01,1.57313138e-01,1.65404665e+00,4.48049469e+01
1.33970511e+00,1.26117378e-01,1.90361619e-01,1.89453375e+00,4.78918076e+01
1.39977336e+00,1.94025234e+04,2.71620156e+04,1.80836016e+04,1.11694727e+03
1.46138775e+00,2.20618164e+04,3.08564629e+04,1.90453496e+04,1.24104175e+03
1.52458799e+00,1.79218164e+04,2.50677285e+04,1.56806064e+04,1.17268823e+03
1.58941495e+00,1.68038535e+04,2.35130273e+04,1.51247480e+04,1.32739563e+03
1.65591037e+00,1.64933828e+04,2.30832617e+04,1.50698174e+04,1.41753345e+03
1.72411728e+00,1.63993418e+04,2.29544102e+04,1.51167295e+04,1.49413293e+03
1.79407966e+00,1.63256758e+04,2.28528945e+04,1.51264375e+04,1.53307837e+03
1.86584306e+00,1.62293535e+04,2.27190430e+04,1.50806738e+04,1.56135571e+03
1.93945324e+00,1.61048086e+04,2.25451035e+04,1.49861455e+04,1.56898877e+03
2.01495814e+00,1.59148613e+04,2.22792344e+04,1.48140645e+04,1.58484521e+03
2.09240627e+00,1.56843057e+04,2.19562812e+04,1.45930088e+04,1.55799451e+03
2.17184782e+00,1.53852627e+04,2.15371562e+04,1.42963389e+04,1.54155994e+03
2.25333428e+00,1.49596523e+04,2.09406680e+04,1.38761113e+04,1.50085999e+03
2.33691788e+00,1.43995381e+04,2.01559551e+04,1.33348145e+04,1.45105750e+03
2.42265272e+00,1.36788115e+04,1.91465508e+04,1.26517314e+04,1.38486169e+03
2.51059437e+00,1.28252344e+04,1.79514785e+04,1.18575137e+04,1.31566553e+03
2.60079956e+00,1.19580723e+04,1.67376113e+04,1.10608203e+04,1.24160254e+03
2.69332647e+00,1.11789688e+04,1.56472002e+04,1.03517461e+04,1.17643115e+03
2.78823495e+00,1.05705430e+04,1.47955576e+04,9.79625293e+03,1.12953052e+03
2.88558602e+00,1.01660557e+04,1.42291855e+04,9.41915625e+03,1.09242371e+03
2.98544264e+00,9.87605078e+03,1.38229551e+04,9.14519434e+03,1.06372705e+03
3.08786964e+00,9.55514453e+03,1.33736514e+04,8.84928613e+03,1.02948291e+03
3.19293284e+00,8.94334863e+03,1.25179209e+04,8.30996094e+03,9.87397400e+02
3.30070019e+00,7.96133398e+03,1.11447549e+04,7.45341895e+03,9.14941711e+02
3.41124129e+00,7.02956885e+03,9.84169336e+03,6.63081006e+03,8.32183044e+02
3.52462745e+00,6.44841748e+03,9.02850977e+03,6.09879150e+03,7.77798950e+02
3.64093208e+00,6.33707324e+03,8.87196582e+03,5.96681641e+03,7.45721313e+02
3.76023054e+00,6.63673242e+03,9.29021484e+03,6.20080615e+03,7.65346313e+02
3.88259912e+00,6.99560938e+03,9.79223340e+03,6.52222705e+03,7.91766907e+02
4.00811720e+00,6.93232373e+03,9.70453223e+03,6.49902441e+03,8.01954407e+02
4.13686609e+00,6.34787305e+03,8.88753613e+03,5.99980908e+03,7.57264160e+02
4.26892853e+00,5.58161475e+03,7.81559668e+03,5.31292480e+03,6.93080444e+02
4.40439081e+00,4.95058887e+03,6.93243604e+03,4.72970312e+03,6.29074463e+02
4.54333878e+00,4.60682715e+03,6.45099561e+03,4.39958887e+03,5.93168823e+02
4.68586397e+00,4.52680762e+03,6.33862793e+03,4.31114746e+03,5.75107788e+02
4.83205652e+00,4.52295557e+03,6.33328906e+03,4.30807227e+03,5.80622498e+02
4.98201227e+00,4.40377002e+03,6.16674219e+03,4.20887305e+03,5.67446472e+02
5.13582754e+00,4.13801025e+03,5.79509961e+03,3.97369849e+03,5.49672119e+02
5.29360199e+00,3.84938184e+03,5.39133496e+03,3.71496387e+03,5.16924255e+02
5.45543718e+00,3.66526660e+03,5.13382617e+03,3.54990259e+03,5.07300903e+02
5.62143755e+00,3.54567090e+03,4.96669482e+03,3.44738940e+03,4.90895386e+02
5.79171038e+00,3.40444287e+03,4.76942188e+03,3.32758936e+03,4.84450928e+02
5.96636629e+00,3.17530469e+03,4.44870020e+03,3.11543604e+03,4.52035248e+02
6.14551687e+00,2.87952734e+03,4.03452124e+03,2.83621411e+03,4.23411438e+02
6.32927942e+00,2.62060132e+03,3.67204102e+03,2.59578174e+03,3.90118988e+02
6.51777077e+00,2.45015063e+03,3.43368457e+03,2.44645410e+03,3.77831238e+02
6.71111441e+00,2.31348950e+03,3.24222119e+03,2.31621362e+03,3.53460205e+02
6.90943432e+00,2.10980859e+03,2.95666406e+03,2.11954199e+03,3.32713257e+02
7.11285782e+00,1.86926831e+03,2.61961255e+03,1.89735986e+03,3.02144073e+02
7.32151794e+00,1.71219153e+03,2.39955420e+03,1.76403955e+03,2.90383240e+02
7.53554821e+00,1.61206531e+03,2.25905981e+03,1.69286670e+03,2.75388763e+02
7.75508738e+00,1.50702026e+03,2.11185693e+03,1.63334277e+03,2.66444824e+02
7.98027754e+00,1.37011792e+03,1.92040295e+03,1.56837598e+03,2.48150223e+02
8.21126270e+00,1.23617041e+03,1.73315479e+03,1.52475293e+03,2.31892319e+02
8.44819450e+00,1.13117053e+03,1.58673462e+03,1.53937927e+03,2.14678818e+02
8.69122219e+00,1.06572705e+03,1.49601990e+03,1.61885815e+03,2.01357178e+02
8.94050789e+00,1.03383191e+03,1.45282776e+03,1.75489844e+03,1.87388351e+02
9.19620800e+00,1.02004510e+03,1.43574646e+03,1.91888574e+03,1.73672455e+02
9.45849037e+00,1.02295056e+03,1.44286340e+03,2.07586963e+03,1.57453262e+02
9.72752285e+00,1.03680176e+03,1.46607349e+03,2.16471948e+03,1.41222122e+02
1.00034800e+01,1.06540100e+03,1.50978528e+03,2.16478027e+03,1.24944244e+02
1.02865391e+01,1.10812390e+03,1.57337878e+03,2.11664893e+03,1.11222572e+02
1.05768833e+01,1.17585999e+03,1.67259570e+03,2.04005347e+03,1.02153084e+02
1.08747025e+01,1.25729199e+03,1.78856543e+03,1.92412585e+03,9.57194672e+01
1.11801853e+01,1.30301013e+03,1.85131335e+03,1.79833655e+03,8.96194229e+01
1.14935322e+01,1.31485278e+03,1.86728687e+03,1.67656067e+03,8.46695404e+01
1.18149433e+01,1.33347412e+03,1.89463843e+03,1.53764209e+03,8.02641068e+01
1.21446266e+01,1.37688318e+03,1.95352563e+03,1.38387390e+03,7.77002335e+01
1.24827967e+01,1.43852979e+03,2.03846387e+03,1.23871570e+03,7.45143356e+01
1.28296700e+01,1.55084351e+03,2.20122729e+03,1.12448669e+03,6.97831421e+01
1.31854706e+01,1.80719470e+03,2.56907275e+03,1.07084961e+03,6.27325745e+01
1.35504293e+01,2.19884277e+03,3.12174902e+03,1.07795972e+03,5.73210945e+01
1.39247818e+01,2.62600391e+03,3.71841382e+03,1.10504553e+03,5.26100349e+01
1.43087692e+01,3.10541919e+03,4.37396484e+03,1.14453931e+03,4.72661438e+01
1.47026405e+01,3.38244360e+03,4.70878711e+03,1.13580603e+03,4.18142395e+01
1.51066484e+01,3.18244971e+03,4.35933252e+03,1.06011694e+03,3.62649269e+01
1.55210552e+01,2.56867236e+03,3.48101465e+03,9.68710266e+02,2.99471703e+01
1.59461288e+01,1.97483337e+03,2.68138940e+03,8.35034180e+02,2.40951214e+01
1.63821430e+01,1.51399329e+03,2.06784082e+03,6.74913757e+02,1.93283119e+01
1.68293781e+01,1.11029724e+03,1.51771851e+03,5.04337952e+02,1.61709290e+01
1.72881241e+01,7.21290588e+02,9.86493774e+02,3.69631714e+02,1.39366665e+01
1.77586803e+01,5.33778564e+02,7.33067688e+02,3.19461609e+02,1.17759342e+01
1.82413464e+01,4.42676086e+02,6.10311096e+02,2.77107056e+02,9.16943359e+00
1.87364349e+01,3.79326324e+02,5.22827148e+02,2.18959702e+02,5.87023020e+00
1.92442665e+01,2.85035828e+02,3.90801331e+02,1.41147247e+02,2.61609793e+00
1.97651691e+01,1.46863251e+02,1.99681564e+02,5.60432587e+01,5.25878131e-01
2.02994785e+01,3.91648483e+01,5.18109016e+01,6.71901798e+00,8.35531577e-03
2.08475418e+01,1.09694605e+01,1.39663906e+01,6.20189071e-01,5.24696334e-05
2.14097099e+01,5.06767750e+00,6.49439526e+00,3.21807861e-01,7.96035511e-06
2.19863453e+01,2.61042643e+00,3.39844680e+00,1.09594926e-01,4.63771630e-06
2.25778236e+01,1.67564380e+00,2.18759656e+00,3.90182622e-02,3.53642986e-06
2.31845264e+01,1.06404662e+00,1.35882556e+00,1.06780045e-02,2.41259636e-06
2.38068466e+01,3.89617562e-01,4.73308384e-01,3.10380914e-04,1.37682684e-06
2.44451809e+01,1.18677363e-01,1.38605148e-01,6.27574354e-06,6.25408461e-07
2.50999470e+01,3.38530242e-02,3.86148430e-02,4.89039212e-06,2.47477317e-07
2.57715645e+01,8.21288396e-03,9.30005964e-03,2.15215573e-06,9.22759256e-08
2.64604683e+01,2.99053756e-03,3.38452728e-03,2.28720819e-06,5.53078578e-08
2.71671047e+01,7.47965882e-04,8.40901514e-04,1.07322273e-06,2.27897150e-08
2.78919277e+01,1.65964797e-04,1.85862940e-04,3.15387069e-07,6.98016889e-09
2.86354065e+01,1.64895519e-05,1.76894555e-05,6.97275198e-08,9.78857662e-10
2.93980217e+01,1.10877545e-06,1.17015588e-06,1.09451435e-08,6.33151587e-11
3.01802654e+01,2.34292060e-07,2.60026582e-07,2.08760254e-09,1.50276059e-11
3.09826431e+01,3.60217669e-08,4.29776215e-08,4.66692629e-10,2.73530482e-12
3.18056717e+01,5.49855361e-09,6.64356659e-09,6.35664299e-11,4.73495700e-13
3.26498833e+01,8.41634762e-10,1.03620557e-09,9.79212891e-12,6.39307062e-14
3.35158234e+01,8.07440642e-11,1.01781188e-10,8.79631546e-13,7.05093985e-15
3.44040565e+01,5.57198038e-12,7.15337858e-12,5.65488818e-14,4.69707986e-16
3.53151436e+01,2.70603798e-13,3.53051545e-13,2.46821420e-15,7.98227223e-18
3.62496834e+01,8.40241945e-15,1.11303212e-14,4.37544597e-17,3.31140794e-19
3.72082787e+01,1.78732224e-16,2.45783471e-16,9.19034263e-19,8.99243715e-21
3.81915474e+01,3.15833812e-18,4.34484516e-18,3.73772804e-20,2.77698426e-22
3.92001228e+01,7.87906271e-20,9.90329451e-20,3.95498633e-22,5.63501804e-24
4.02346535e+01,1.76046693e-21,2.87003117e-21,1.32924419e-23,1.33179861e-25
4.12958107e+01,4.72235141e-23,5.96128555e-23,5.86932087e-25,3.65763101e-27
4.23842850e+01,1.78254876e-24,2.64313467e-24,8.75779048e-27,6.01868214e-29
4.35007744e+01,2.29390182e-26,3.07440295e-26,1.56023461e-28,1.38923195e-30
4.46459999e+01,7.35490353e-28,9.93524569e-28,4.64778392e-30,3.21529855e-32
4.58207016e+01,3.47272583e-29,4.65612733e-29,3.29653802e-31,8.85045768e-34
4.70256386e+01,5.88726174e-31,7.98501181e-31,3.61064551e-33,2.40367702e-35
4.82615852e+01,1.66932732e-32,2.15607602e-32,1.00276762e-34,4.76483539e-37
4.95293465e+01,6.51962641e-34,9.26383129e-34,7.17399955e-36,1.05840073e-38
5.08297386e+01,2.35778794e-36,2.16598592e-36,2.43685803e-38,2.87266185e-40
5.21635971e+01,3.38134710e-37,5.17653688e-37,4.29497979e-39,0.00000000e+00
5.35317917e+01,4.74759920e-39,4.72517842e-39,2.52233724e-41,0.00000000e+00
5.49351997e+01,1.65353219e-40,2.78858394e-40,0.00000000e+00,0.00000000e+00
5.63747253e+01,0.00000000e+00,0.00000000e+00,0.00000000e+00,0.00000000e+00
5.78513031e+01,0.00000000e+00,0.00000000e+00,0.00000000e+00,0.00000000e+00
5.93278885e+01,0.00000000e+00,0.00000000e+00,0.00000000e+00,0.00000000e+00
6.08044662e+01,0.00000000e+00,0.00000000e+00,0.00000000e+00,0.00000000e+00
6.22810478e+01,0.00000000e+00,0.00000000e+00,0.00000000e+00,0.00000000e+00
6.37576256e+01,0.00000000e+00,0.00000000e+00,0.00000000e+00,0.00000000e+00
6.52341995e+01,0.00000000e+00,0.00000000e+00,0.00000000e+00,0.00000000e+00
6.67107849e+01,0.00000000e+00,0.00000000e+00,0.00000000e+00,0.00000000e+00
6.81873703e+01,0.00000000e+00,0.00000000e+00,0.00000000e+00,0.00000000e+00
6.96639481e+01,0.00000000e+00,0.00000000e+00,0.00000000e+00,0.00000000e+00
7.11405258e+01,0.00000000e+00,0.00000000e+00,0.00000000e+00,0.00000000e+00
7.26171036e+01,0.00000000e+00,0.00000000e+00,0.00000000e+00,0.00000000e+00
7.40936813e+01,0.00000000e+00,0.00000000e+00,0.00000000e+00,0.00000000e+00
7.55702591e+01,0.00000000e+00,0.00000000e+00,0.00000000e+00,0.00000000e+00
7.70468445e+01,0.00000000e+00,0.00000000e+00,0.00000000e+00,0.00000000e+00
7.85234222e+01,0.00000000e+00,0.00000000e+00,0.00000000e+00,0.00000000e+00
8.00000000e+01,0.00000000e+00,0.00000000e+00,0.00000000e+00,0.00000000e+00
