Height (km), 7_8 um ash conc (g/kg), 15_6 um ash conc (g/kg), 125 um ash conc (g/kg), 1 mm ash conc (g/kg)
0.00000000e+00,0.00000000e+00,0.00000000e+00,0.00000000e+00,0.00000000e+00
3.99999991e-02,7.53865015e-14,8.55517507e-14,3.93837363e-01,7.61807938e+01
7.99999982e-02,4.87851808e-11,5.66234178e-11,5.71620882e-01,7.78061981e+01
1.19999997e-01,9.68608305e-10,1.16052068e-09,6.16646409e-01,7.58694611e+01
1.59999996e-01,5.67565106e-09,7.00435265e-09,7.20063806e-01,7.75841827e+01
2.00000003e-01,2.97684117e-08,3.71273501e-08,7.39340901e-01,7.61150970e+01
2.39999995e-01,1.40255707e-07,1.75807514e-07,8.35427046e-01,7.71143188e+01
2.80000001e-01,4.53083572e-07,5.78942718e-07,8.49118233e-01,7.51829453e+01
3.19999993e-01,1.18316530e-06,1.56719261e-06,9.24912691e-01,7.62810135e+01
3.60000014e-01,3.09983420e-06,4.04856883e-06,9.38784957e-01,7.53337708e+01
4.00000006e-01,5.42842781e-06,6.96260622e-06,9.88046825e-01,7.70855789e+01
4.39999998e-01,1.10241581e-05,1.37556090e-05,1.01483226e+00,7.62698975e+01
4.79999989e-01,1.93551041e-05,2.33764222e-05,1.05663359e+00,7.65831985e+01
5.19999981e-01,3.35883851e-05,4.03601589e-05,1.10170531e+00,7.49379654e+01
5.60000002e-01,5.39100183e-05,6.60413207e-05,1.12879586e+00,7.64346161e+01
6.00000024e-01,9.18867809e-05,1.15665091e-04,1.18258357e+00,7.71790543e+01
6.41029537e-01,1.40787481e-04,1.83989701e-04,1.23128855e+00,8.02975540e+01
6.83115125e-01,2.05300661e-04,2.87307921e-04,1.29663420e+00,8.23457184e+01
7.26283848e-01,2.92535144e-04,4.47862782e-04,1.43186891e+00,8.04749222e+01
7.70563781e-01,4.11845860e-04,7.19575328e-04,1.56817639e+00,7.68268433e+01
8.15983355e-01,6.46930188e-04,1.22507010e-03,1.66355515e+00,8.52209320e+01
8.62571895e-01,1.06068153e-03,2.06315913e-03,1.80759501e+00,7.57145767e+01
9.10359621e-01,1.70505571e-03,3.31729883e-03,2.04747295e+00,8.73036880e+01
9.59377348e-01,2.48862524e-03,4.83445032e-03,2.03048420e+00,7.60651627e+01
1.00965667e+00,3.41925886e-03,6.56013237e-03,2.39791107e+00,9.41991043e+01
1.06123006e+00,4.34839306e-03,8.17472208e-03,2.42019558e+00,8.28578796e+01
1.11413085e+00,5.51372766e-03,1.02070384e-02,2.59557605e+00,1.02527916e+02
1.16839325e+00,6.90144394e-03,1.26655810e-02,2.58427095e+00,9.41170654e+01
1.22405231e+00,8.54543317e-03,1.56493764e-02,2.52667856e+00,9.33785172e+01
1.28114390e+00,1.08180158e-02,1.97320636e-02,2.81051397e+00,8.86512604e+01
1.33970511e+00,1.49156610e-02,2.72306055e-02,2.64293551e+00,1.26232040e+02
1.39977336e+00,2.07080703e+04,2.89935156e+04,1.95310156e+04,1.39267615e+03
1.46138775e+00,2.62501641e+04,3.67106875e+04,2.22537930e+04,1.50619275e+03
1.52458799e+00,1.57575684e+04,2.20306328e+04,1.34914209e+04,1.09314990e+03
1.58941495e+00,1.43783955e+04,2.01177031e+04,1.30083477e+04,1.39148682e+03
1.65591037e+00,1.48889639e+04,2.08436973e+04,1.40333594e+04,1.70376038e+03
1.72411728e+00,1.68884824e+04,2.36536914e+04,1.64399375e+04,2.16463525e+03
1.79407966e+00,1.96484434e+04,2.75251484e+04,1.93906270e+04,2.47924121e+03
1.86584306e+00,2.17271797e+04,3.04353887e+04,2.13064766e+04,2.51453003e+03
1.93945324e+00,2.21391699e+04,3.10055547e+04,2.13097578e+04,2.26032861e+03
2.01495814e+00,2.09190859e+04,2.92879102e+04,1.96363027e+04,1.88494580e+03
2.09240627e+00,1.85390566e+04,2.59474219e+04,1.69569355e+04,1.51794653e+03
2.17184782e+00,1.58347578e+04,2.21571719e+04,1.42106953e+04,1.25925647e+03
2.25333428e+00,1.35960586e+04,1.90230137e+04,1.21217148e+04,1.12744080e+03
2.33691788e+00,1.20712129e+04,1.68911387e+04,1.08351074e+04,1.08267578e+03
2.42265272e+00,1.12773916e+04,1.57835645e+04,1.02549453e+04,1.12225903e+03
2.51059437e+00,1.09970146e+04,1.53939473e+04,1.01154355e+04,1.19266333e+03
2.60079956e+00,1.09859639e+04,1.53820527e+04,1.02853594e+04,1.32948474e+03
2.69332647e+00,1.16023252e+04,1.62499531e+04,1.11187422e+04,1.55907153e+03
2.78823495e+00,1.27615146e+04,1.78771445e+04,1.24466914e+04,1.86462048e+03
2.88558602e+00,1.40413896e+04,1.96740312e+04,1.39458076e+04,2.22407764e+03
2.98544264e+00,1.57131182e+04,2.20204160e+04,1.58722773e+04,2.65335400e+03
3.08786964e+00,1.72949941e+04,2.42398008e+04,1.76587051e+04,2.99073560e+03
3.19293284e+00,1.86325918e+04,2.61152109e+04,1.91001934e+04,3.19447583e+03
3.30070019e+00,2.03706484e+04,2.85515332e+04,2.09370527e+04,3.42079907e+03
3.41124129e+00,2.23365977e+04,3.13060098e+04,2.29510664e+04,3.58392798e+03
3.52462745e+00,2.51128086e+04,3.51964453e+04,2.57484473e+04,3.74158643e+03
3.64093208e+00,2.85930820e+04,4.00665625e+04,2.87830293e+04,3.70886987e+03
3.76023054e+00,2.92411484e+04,4.09622109e+04,2.87966270e+04,3.38020239e+03
3.88259912e+00,2.87531172e+04,4.02703281e+04,2.77985840e+04,2.98085376e+03
4.00811720e+00,2.68600117e+04,3.76070039e+04,2.52639180e+04,2.47813770e+03
4.13686609e+00,2.22871602e+04,3.11962285e+04,2.05010645e+04,1.93031958e+03
4.26892853e+00,1.78137930e+04,2.49353047e+04,1.63488682e+04,1.61252563e+03
4.40439081e+00,1.73191094e+04,2.42452930e+04,1.59743379e+04,1.66180261e+03
4.54333878e+00,1.64481836e+04,2.30281055e+04,1.53556455e+04,1.74943286e+03
4.68586397e+00,1.67056621e+04,2.33948867e+04,1.59396191e+04,1.98730737e+03
4.83205652e+00,1.94237188e+04,2.72001172e+04,1.84477656e+04,2.23903418e+03
4.98201227e+00,1.80403418e+04,2.52599355e+04,1.70236035e+04,2.07526831e+03
5.13582754e+00,1.63195039e+04,2.28540703e+04,1.55531572e+04,2.06295117e+03
5.29360199e+00,1.69485977e+04,2.37349512e+04,1.61834873e+04,2.25406812e+03
5.45543718e+00,1.48920322e+04,2.08587539e+04,1.44454805e+04,2.11661279e+03
5.62143755e+00,1.29029941e+04,1.80803770e+04,1.28317656e+04,1.89712695e+03
5.79171038e+00,1.19706514e+04,1.67693008e+04,1.17236611e+04,1.65063269e+03
5.96636629e+00,1.15149043e+04,1.61389121e+04,1.16050469e+04,1.75215869e+03
6.14551687e+00,1.67824180e+04,2.35205977e+04,1.68264062e+04,2.33258472e+03
6.32927942e+00,2.16157129e+04,3.02802520e+04,2.11542070e+04,2.69358228e+03
6.51777077e+00,2.38649688e+04,3.34398828e+04,2.37338066e+04,3.17710742e+03
6.71111441e+00,3.13875586e+04,4.39666680e+04,3.04733516e+04,3.64591382e+03
6.90943432e+00,2.65031465e+04,3.70911875e+04,2.43829453e+04,2.47002222e+03
7.11285782e+00,1.28670801e+04,1.79952910e+04,1.14433975e+04,1.13815161e+03
7.32151794e+00,7.85501953e+03,1.09875625e+04,7.11400732e+03,8.10823364e+02
7.53554821e+00,7.70812646e+03,1.07887734e+04,7.25022656e+03,9.00221436e+02
7.75508738e+00,7.42507617e+03,1.03950068e+04,7.09588086e+03,9.11388184e+02
7.98027754e+00,6.04181006e+03,8.46016504e+03,5.89359521e+03,8.20267517e+02
8.21126270e+00,4.95933789e+03,6.94758008e+03,5.03147266e+03,7.57085632e+02
8.44819450e+00,4.76513037e+03,6.67627246e+03,4.95249316e+03,7.58281128e+02
8.69122219e+00,5.37858984e+03,7.53530566e+03,5.64571631e+03,8.32220886e+02
8.94050789e+00,7.30977979e+03,1.02412471e+04,7.63265381e+03,1.04507629e+03
9.19620800e+00,9.95976172e+03,1.39515283e+04,1.01895000e+04,1.26675122e+03
9.45849037e+00,1.08672637e+04,1.52218555e+04,1.11174873e+04,1.33750513e+03
9.72752285e+00,1.12012754e+04,1.56954482e+04,1.17102773e+04,1.41860620e+03
1.00034800e+01,1.28029697e+04,1.79365527e+04,1.31388457e+04,1.45866467e+03
1.02865391e+01,1.01862988e+04,1.42617109e+04,1.02686484e+04,1.00647986e+03
1.05768833e+01,4.91822070e+03,6.89213672e+03,5.53962598e+03,5.54193359e+02
1.08747025e+01,3.65629077e+03,5.13186133e+03,4.62772461e+03,4.70315521e+02
1.11801853e+01,3.66234131e+03,5.14276904e+03,4.69876318e+03,4.57834564e+02
1.14935322e+01,3.25626416e+03,4.57608008e+03,4.38407422e+03,4.99096619e+02
1.18149433e+01,3.63057422e+03,5.10654688e+03,4.96348145e+03,7.14272705e+02
1.21446266e+01,5.22631885e+03,7.35153711e+03,6.73154492e+03,9.57306458e+02
1.24827967e+01,6.69938721e+03,9.42022754e+03,7.87980908e+03,9.41231812e+02
1.28296700e+01,6.41105420e+03,9.01626367e+03,6.94307178e+03,7.17637634e+02
1.31854706e+01,4.95690381e+03,6.98427295e+03,5.05057129e+03,5.01379456e+02
1.35504293e+01,3.85214746e+03,5.45596045e+03,3.72369434e+03,3.86647400e+02
1.39247818e+01,3.74224463e+03,5.31426709e+03,3.29870630e+03,3.66277771e+02
1.43087692e+01,4.26190088e+03,6.01390576e+03,3.47796387e+03,3.84152069e+02
1.47026405e+01,4.89001953e+03,6.84642822e+03,3.96812256e+03,4.22592438e+02
1.51066484e+01,5.35495068e+03,7.46561230e+03,4.52956494e+03,4.73651245e+02
1.55210552e+01,5.74772070e+03,8.01705176e+03,5.04174902e+03,5.17187134e+02
1.59461288e+01,5.92265283e+03,8.27275098e+03,5.28529639e+03,5.40331848e+02
1.63821430e+01,5.96149072e+03,8.33427930e+03,5.41769238e+03,5.60609863e+02
1.68293781e+01,5.78685400e+03,8.09324951e+03,5.24290625e+03,5.21083618e+02
1.72881241e+01,4.86981494e+03,6.81216895e+03,4.35573584e+03,4.12084991e+02
1.77586803e+01,4.16438037e+03,5.82693164e+03,3.72280249e+03,3.40472778e+02
1.82413464e+01,4.23025537e+03,5.91161133e+03,3.67199683e+03,3.25985992e+02
1.87364349e+01,4.42479541e+03,6.17757324e+03,3.74847461e+03,3.30125946e+02
1.92442665e+01,4.58075977e+03,6.39536328e+03,3.82012695e+03,3.46264954e+02
1.97651691e+01,4.73677539e+03,6.61358984e+03,3.91724829e+03,3.79477203e+02
2.02994785e+01,4.78989258e+03,6.68811768e+03,4.02435596e+03,3.95983765e+02
2.08475418e+01,4.79835986e+03,6.70166797e+03,4.13593066e+03,3.98515686e+02
2.14097099e+01,4.96168164e+03,6.93290332e+03,4.34690430e+03,4.12999084e+02
2.19863453e+01,5.09343604e+03,7.11902979e+03,4.46142676e+03,3.95384033e+02
2.25778236e+01,4.81205078e+03,6.72466504e+03,4.10414355e+03,3.26242859e+02
2.31845264e+01,4.03890137e+03,5.64352148e+03,3.40943750e+03,2.63058105e+02
2.38068466e+01,3.10435034e+03,4.34018018e+03,2.66578125e+03,1.89409821e+02
2.44451809e+01,1.60762683e+03,2.24659595e+03,1.31681165e+03,7.47659607e+01
2.50999470e+01,3.87458984e+02,5.40406433e+02,2.81690399e+02,1.04108620e+01
2.57715645e+01,3.83656731e+01,5.31088409e+01,2.03278084e+01,2.33515888e-01
2.64604683e+01,4.21234941e+00,5.65429449e+00,5.00292182e-01,7.41122449e-07
2.71671047e+01,1.88015294e+00,2.48794460e+00,5.88959195e-02,5.48646938e-07
2.78919277e+01,1.03613818e+00,1.35976207e+00,5.29695340e-02,5.59857824e-07
2.86354065e+01,6.55266821e-01,8.46400142e-01,3.15918401e-02,4.67244831e-07
2.93980217e+01,2.11919427e-01,2.68520355e-01,4.37497394e-03,1.45160143e-07
3.01802654e+01,5.28695136e-02,6.53167069e-02,4.46186186e-06,3.86992527e-09
3.09826431e+01,5.63369459e-03,6.49358379e-03,5.51678568e-06,1.49852727e-10
3.18056717e+01,1.29378430e-04,1.54288748e-04,1.28389001e-06,5.54984097e-12
3.26498833e+01,9.41708458e-06,1.18902735e-05,8.93670702e-08,9.77050268e-14
3.35158234e+01,4.95221109e-08,5.24397912e-08,8.98864538e-10,1.71862212e-15
3.44040565e+01,1.17083436e-08,1.32671687e-08,1.77926271e-10,1.50541088e-16
3.53151436e+01,6.54686250e-10,7.71630704e-10,8.40189029e-12,8.35976438e-18
3.62496834e+01,2.03361494e-11,2.51317977e-11,2.41159821e-13,2.69160022e-19
3.72082787e+01,7.96170638e-13,9.86103885e-13,7.17421914e-15,9.37235135e-21
3.81915474e+01,3.36237995e-14,4.08741712e-14,1.94745964e-16,3.30166132e-22
3.92001228e+01,1.02672188e-15,1.25994933e-15,1.36721871e-18,7.27117788e-24
4.02346535e+01,9.50678016e-18,1.23670367e-17,8.15911569e-20,1.72235477e-25
4.12958107e+01,3.86973857e-19,4.56613573e-19,1.16982564e-21,3.82094640e-27
4.23842850e+01,5.20890212e-21,6.83864382e-21,2.59121149e-23,6.07261480e-29
4.35007744e+01,8.05782792e-23,9.19248758e-23,2.21817826e-25,8.45214010e-31
4.46459999e+01,3.12843168e-27,2.75619854e-27,4.63873137e-29,1.11905891e-34
4.58207016e+01,1.06891837e-27,1.56968673e-27,3.96565113e-30,1.38438036e-35
4.70256386e+01,2.14285943e-30,2.40893606e-30,9.38428217e-33,6.68125095e-38
4.82615852e+01,1.00921856e-31,2.00905385e-31,5.30334562e-34,2.05990874e-39
4.95293465e+01,4.07223775e-32,5.11812297e-32,1.42646010e-34,3.88159675e-40
5.08297386e+01,2.83547398e-34,3.50981629e-34,1.97770857e-37,0.00000000e+00
5.21635971e+01,9.70781192e-36,9.87283959e-36,2.33834675e-38,0.00000000e+00
5.35317917e+01,2.93284773e-37,3.70448652e-37,1.36766730e-39,0.00000000e+00
5.49351997e+01,6.23717946e-39,5.24506015e-39,0.00000000e+00,0.00000000e+00
5.63747253e+01,1.02294788e-40,1.70958413e-40,0.00000000e+00,0.00000000e+00
5.78513031e+01,0.00000000e+00,0.00000000e+00,0.00000000e+00,0.00000000e+00
5.93278885e+01,0.00000000e+00,0.00000000e+00,0.00000000e+00,0.00000000e+00
6.08044662e+01,0.00000000e+00,0.00000000e+00,0.00000000e+00,0.00000000e+00
6.22810478e+01,0.00000000e+00,0.00000000e+00,0.00000000e+00,0.00000000e+00
6.37576256e+01,0.00000000e+00,0.00000000e+00,0.00000000e+00,0.00000000e+00
6.52341995e+01,0.00000000e+00,0.00000000e+00,0.00000000e+00,0.00000000e+00
6.67107849e+01,0.00000000e+00,0.00000000e+00,0.00000000e+00,0.00000000e+00
6.81873703e+01,0.00000000e+00,0.00000000e+00,0.00000000e+00,0.00000000e+00
6.96639481e+01,0.00000000e+00,0.00000000e+00,0.00000000e+00,0.00000000e+00
7.11405258e+01,0.00000000e+00,0.00000000e+00,0.00000000e+00,0.00000000e+00
7.26171036e+01,0.00000000e+00,0.00000000e+00,0.00000000e+00,0.00000000e+00
7.40936813e+01,0.00000000e+00,0.00000000e+00,0.00000000e+00,0.00000000e+00
7.55702591e+01,0.00000000e+00,0.00000000e+00,0.00000000e+00,0.00000000e+00
7.70468445e+01,0.00000000e+00,0.00000000e+00,0.00000000e+00,0.00000000e+00
7.85234222e+01,0.00000000e+00,0.00000000e+00,0.00000000e+00,0.00000000e+00
8.00000000e+01,0.00000000e+00,0.00000000e+00,0.00000000e+00,0.00000000e+00
