Height (km), 7_8 um ash conc (g/kg), 15_6 um ash conc (g/kg), 125 um ash conc (g/kg), 1 mm ash conc (g/kg)
0.00000000e+00,0.00000000e+00,0.00000000e+00,0.00000000e+00,0.00000000e+00
3.99999991e-02,5.61630157e-28,9.79027806e-28,2.09865689e-18,1.37717438e+00
7.99999982e-02,3.04163788e-22,5.21944353e-22,1.07067957e-12,1.66912007e+00
1.19999997e-01,6.27841031e-21,1.08168276e-20,2.78358257e-11,1.90844631e+00
1.59999996e-01,1.13768581e-18,2.02008983e-18,4.07091472e-10,2.03958488e+00
2.00000003e-01,6.66316549e-17,1.15646626e-16,9.16528187e-09,2.09343100e+00
2.39999995e-01,5.03544252e-16,8.94038405e-16,1.01217324e-07,2.16912961e+00
2.80000001e-01,3.15974714e-15,5.66922540e-15,2.12888904e-06,2.29964781e+00
3.19999993e-01,1.50978676e-14,2.72852877e-14,1.71696065e-05,2.37090111e+00
3.60000014e-01,7.75609232e-14,1.42948899e-13,9.79944380e-05,2.57763219e+00
4.00000006e-01,5.51202313e-13,1.02717552e-12,1.17171774e-04,2.64656878e+00
4.39999998e-01,3.17548136e-12,6.02915200e-12,1.65637335e-04,2.72643876e+00
4.79999989e-01,1.23830547e-11,2.37768329e-11,4.28331550e-04,2.78003120e+00
5.19999981e-01,3.22514897e-11,6.27184693e-11,5.38762484e-04,2.87772346e+00
5.60000002e-01,1.46196374e-10,2.84706980e-10,1.16315507e-03,2.99559689e+00
6.00000024e-01,4.24023316e-10,8.45155279e-10,1.30467117e-03,3.09628081e+00
6.41029537e-01,1.82080506e-09,3.61901487e-09,2.32246704e-03,3.13920164e+00
6.83115125e-01,5.28530508e-09,1.07555262e-08,2.77610589e-03,3.22384071e+00
7.26283848e-01,1.10459535e-08,2.25331824e-08,3.49670742e-03,3.27886558e+00
7.70563781e-01,1.90332763e-08,3.89172925e-08,3.78796016e-03,3.41424894e+00
8.15983355e-01,3.63320751e-08,7.34239762e-08,4.91154520e-03,3.69955158e+00
8.62571895e-01,7.62738637e-08,1.53622636e-07,5.66860661e-03,3.67853880e+00
9.10359621e-01,1.59177006e-07,3.16869716e-07,6.22051582e-03,4.04853535e+00
9.59377348e-01,3.15474722e-07,6.25762482e-07,6.84154639e-03,3.88169885e+00
1.00965667e+00,6.26239057e-07,1.20125742e-06,7.06526265e-03,4.48012543e+00
1.06123006e+00,1.34449328e-06,2.56638305e-06,7.02082319e-03,4.44971323e+00
1.11413085e+00,2.67858559e-06,5.03763613e-06,7.08597712e-03,4.84326792e+00
1.16839325e+00,5.18477145e-06,9.71125701e-06,7.50827976e-03,5.13045168e+00
1.22405231e+00,1.10300489e-05,2.04504249e-05,7.87138566e-03,5.53048944e+00
1.28114390e+00,2.10048638e-05,3.93485934e-05,7.77546782e-03,5.84156847e+00
1.33970511e+00,3.17167323e-05,5.85270027e-05,7.51900813e-03,6.05609083e+00
1.39977336e+00,2.01706875e+04,2.82557090e+04,2.00136133e+04,2.09313306e+03
1.46138775e+00,2.55660391e+04,3.57932812e+04,2.40664180e+04,2.00965137e+03
1.52458799e+00,1.50322285e+04,2.10439551e+04,1.42157002e+04,1.33042004e+03
1.58941495e+00,1.48315234e+04,2.07715371e+04,1.44430527e+04,1.63381470e+03
1.65591037e+00,1.61079756e+04,2.25636367e+04,1.59142754e+04,1.94496973e+03
1.72411728e+00,1.75284609e+04,2.45551270e+04,1.74084297e+04,2.15214209e+03
1.79407966e+00,1.81377207e+04,2.54077559e+04,1.79694453e+04,2.15308203e+03
1.86584306e+00,1.74709062e+04,2.44714414e+04,1.71917441e+04,1.96412000e+03
1.93945324e+00,1.58168965e+04,2.21525820e+04,1.54483184e+04,1.69229883e+03
2.01495814e+00,1.38178848e+04,1.93514922e+04,1.34158105e+04,1.43556274e+03
2.09240627e+00,1.20460371e+04,1.68696680e+04,1.16651553e+04,1.25605786e+03
2.17184782e+00,1.08036113e+04,1.51303242e+04,1.04853574e+04,1.17317310e+03
2.25333428e+00,1.01511660e+04,1.42179805e+04,9.91674902e+03,1.17582617e+03
2.33691788e+00,1.00953281e+04,1.41414492e+04,9.93900488e+03,1.25139661e+03
2.42265272e+00,1.04692715e+04,1.46669619e+04,1.03897764e+04,1.38796167e+03
2.51059437e+00,1.13505967e+04,1.59037295e+04,1.13770020e+04,1.62250757e+03
2.60079956e+00,1.30284512e+04,1.82565703e+04,1.31752012e+04,1.97685107e+03
2.69332647e+00,1.50810996e+04,2.11342344e+04,1.53455547e+04,2.38631836e+03
2.78823495e+00,1.72977148e+04,2.42417363e+04,1.76997812e+04,2.84069116e+03
2.88558602e+00,1.96384062e+04,2.75230508e+04,2.01861523e+04,3.30557397e+03
2.98544264e+00,2.17114395e+04,3.04281406e+04,2.23388652e+04,3.63442139e+03
3.08786964e+00,2.29925312e+04,3.22221348e+04,2.36073867e+04,3.74329883e+03
3.19293284e+00,2.33397734e+04,3.27068945e+04,2.38731914e+04,3.64072607e+03
3.30070019e+00,2.28639980e+04,3.20377559e+04,2.32467773e+04,3.37023511e+03
3.41124129e+00,2.16829082e+04,3.03802617e+04,2.18903516e+04,3.01164136e+03
3.52462745e+00,2.03422676e+04,2.84998613e+04,2.04049121e+04,2.69158643e+03
3.64093208e+00,1.95394531e+04,2.73733672e+04,1.94817031e+04,2.47552710e+03
3.76023054e+00,1.87689043e+04,2.62922148e+04,1.86072441e+04,2.30083813e+03
3.88259912e+00,1.77638887e+04,2.48831719e+04,1.75377051e+04,2.13247290e+03
4.00811720e+00,1.68157148e+04,2.35541816e+04,1.65515586e+04,2.00252673e+03
4.13686609e+00,1.57125391e+04,2.20084551e+04,1.54327598e+04,1.86291028e+03
4.26892853e+00,1.44718242e+04,2.02705117e+04,1.42012422e+04,1.72806714e+03
4.40439081e+00,1.32900186e+04,1.86154590e+04,1.30485020e+04,1.61285693e+03
4.54333878e+00,1.23406299e+04,1.72862695e+04,1.21422744e+04,1.53549158e+03
4.68586397e+00,1.17729062e+04,1.64919180e+04,1.16254785e+04,1.51355640e+03
4.83205652e+00,1.15965869e+04,1.62458223e+04,1.14971387e+04,1.54068628e+03
4.98201227e+00,1.17379570e+04,1.64448672e+04,1.16928438e+04,1.61853979e+03
5.13582754e+00,1.22756133e+04,1.71992148e+04,1.22922461e+04,1.75346582e+03
5.29360199e+00,1.31416357e+04,1.84134980e+04,1.32165674e+04,1.93396631e+03
5.45543718e+00,1.41117969e+04,1.97736504e+04,1.42479746e+04,2.13155469e+03
5.62143755e+00,1.51205361e+04,2.11877227e+04,1.53144424e+04,2.33251709e+03
5.79171038e+00,1.59447539e+04,2.23430664e+04,1.61876670e+04,2.49841602e+03
5.96636629e+00,1.66418262e+04,2.33202148e+04,1.69303398e+04,2.64345776e+03
6.14551687e+00,1.73450176e+04,2.43056406e+04,1.76635781e+04,2.76691211e+03
6.32927942e+00,1.77076191e+04,2.48137832e+04,1.80490645e+04,2.83336646e+03
6.51777077e+00,1.84282305e+04,2.58237070e+04,1.87987852e+04,2.93442188e+03
6.71111441e+00,2.03713770e+04,2.85454961e+04,2.07188516e+04,3.12806885e+03
6.90943432e+00,2.08929414e+04,2.92740938e+04,2.11282520e+04,3.05176172e+03
7.11285782e+00,1.98818516e+04,2.78554023e+04,1.99850215e+04,2.76926392e+03
7.32151794e+00,1.90464941e+04,2.66827305e+04,1.90076406e+04,2.52293433e+03
7.53554821e+00,1.77560352e+04,2.48729883e+04,1.76075762e+04,2.26850830e+03
7.75508738e+00,1.64941035e+04,2.31048379e+04,1.63148369e+04,2.09388818e+03
7.98027754e+00,1.61621426e+04,2.26402656e+04,1.59857012e+04,2.08158008e+03
8.21126270e+00,1.67721191e+04,2.34940078e+04,1.65488281e+04,2.14991553e+03
8.44819450e+00,1.53497598e+04,2.15026973e+04,1.52091260e+04,2.07818970e+03
8.69122219e+00,1.62516445e+04,2.27696094e+04,1.62665869e+04,2.36851270e+03
8.94050789e+00,1.84585117e+04,2.58604570e+04,1.84367051e+04,2.65410400e+03
9.19620800e+00,1.77804258e+04,2.49124766e+04,1.78692305e+04,2.69043213e+03
9.45849037e+00,2.05553477e+04,2.88013945e+04,2.07123125e+04,3.17027051e+03
9.72752285e+00,2.06211309e+04,2.88905352e+04,2.06729922e+04,3.10778198e+03
1.00034800e+01,1.57701094e+04,2.20937109e+04,1.58105566e+04,2.40498145e+03
1.02865391e+01,1.20096816e+04,1.68249648e+04,1.20248574e+04,1.84777466e+03
1.05768833e+01,8.54285742e+03,1.19694736e+04,8.61045215e+03,1.43412305e+03
1.08747025e+01,9.25588184e+03,1.29718457e+04,9.46008496e+03,1.64562573e+03
1.11801853e+01,1.37067793e+04,1.92071875e+04,1.38846348e+04,2.19777539e+03
1.14935322e+01,1.51658066e+04,2.12448613e+04,1.50791719e+04,2.22866089e+03
1.18149433e+01,1.28873691e+04,1.80540156e+04,1.28728154e+04,2.07090210e+03
1.21446266e+01,1.39089961e+04,1.94878027e+04,1.40236133e+04,2.34720972e+03
1.24827967e+01,1.33510645e+04,1.87044648e+04,1.34167930e+04,2.27573535e+03
1.28296700e+01,1.09431992e+04,1.53354629e+04,1.12219893e+04,2.17239575e+03
1.31854706e+01,1.42738164e+04,2.00103594e+04,1.49609590e+04,2.95992456e+03
1.35504293e+01,2.25307031e+04,3.15810645e+04,2.33895098e+04,4.15078174e+03
1.39247818e+01,2.24244961e+04,3.14217910e+04,2.28593242e+04,3.69668311e+03
1.43087692e+01,1.23233154e+04,1.72674023e+04,1.26798584e+04,2.21564282e+03
1.47026405e+01,7.72099756e+03,1.08268164e+04,8.50417578e+03,1.76956482e+03
1.51066484e+01,9.10851270e+03,1.27789336e+04,1.03630312e+04,1.99436426e+03
1.55210552e+01,1.13551191e+04,1.59320527e+04,1.29418438e+04,2.30876807e+03
1.59461288e+01,1.60268730e+04,2.24826719e+04,1.79986914e+04,2.94105469e+03
1.63821430e+01,2.04354805e+04,2.86600742e+04,2.26429219e+04,3.15426343e+03
1.68293781e+01,1.86728242e+04,2.61956250e+04,2.13711367e+04,2.91583398e+03
1.72881241e+01,2.31158887e+04,3.24267500e+04,2.66100312e+04,3.42663550e+03
1.77586803e+01,2.60860742e+04,3.66055977e+04,3.03630996e+04,3.42139600e+03
1.82413464e+01,2.51356309e+04,3.52923516e+04,3.04434355e+04,3.07126562e+03
1.87364349e+01,2.54718320e+04,3.57929922e+04,3.12030020e+04,2.97958472e+03
1.92442665e+01,3.06314648e+04,4.30001328e+04,3.36554648e+04,3.17212402e+03
1.97651691e+01,3.56595352e+04,4.99990117e+04,3.57933047e+04,3.44224316e+03
2.02994785e+01,3.94736445e+04,5.52998867e+04,3.73191094e+04,3.95645605e+03
2.08475418e+01,4.51717422e+04,6.32432031e+04,4.15397227e+04,4.77042285e+03
2.14097099e+01,4.83998750e+04,6.77169297e+04,4.36766797e+04,4.62747559e+03
2.19863453e+01,4.15803516e+04,5.81266094e+04,3.64197500e+04,3.48399487e+03
2.25778236e+01,3.58210625e+04,5.00357383e+04,3.00149570e+04,2.89012378e+03
2.31845264e+01,3.00231016e+04,4.19248594e+04,2.62058145e+04,2.94021924e+03
2.38068466e+01,2.83006543e+04,3.95783594e+04,2.69074570e+04,3.64871558e+03
2.44451809e+01,2.58645781e+04,3.61933633e+04,2.52404570e+04,3.11571362e+03
2.50999470e+01,1.94082383e+04,2.71671953e+04,1.93597441e+04,2.36693945e+03
2.57715645e+01,2.11751562e+04,2.96333906e+04,1.98308594e+04,1.01707703e+03
2.64604683e+01,9.48869043e+03,1.32272695e+04,6.30577246e+03,7.73102283e-01
2.71671047e+01,6.20031250e+02,8.56765869e+02,2.41872284e+02,9.05696034e-01
2.78919277e+01,3.25293427e+02,4.50242615e+02,1.40002289e+02,7.71972090e-02
2.86354065e+01,2.02241119e+02,2.80453278e+02,8.55142365e+01,1.49260145e-02
2.93980217e+01,2.33029724e+02,3.22744751e+02,8.56394196e+01,1.09612169e-02
3.01802654e+01,1.47850922e+02,2.03927597e+02,4.37404099e+01,1.30791671e-03
3.09826431e+01,8.79813690e+01,1.21191628e+02,2.19673080e+01,3.16494174e-04
3.18056717e+01,4.33676834e+01,5.92166519e+01,5.30814505e+00,2.09988357e-04
3.26498833e+01,1.81330910e+01,2.45952282e+01,1.37993276e+00,2.68151707e-05
3.35158234e+01,6.13068771e+00,8.26348114e+00,4.30973083e-01,4.33517653e-06
3.44040565e+01,1.70003223e+00,2.27900338e+00,9.52848643e-02,2.87673674e-06
3.53151436e+01,6.41261995e-01,8.55969071e-01,2.07069106e-02,1.20515460e-06
3.62496834e+01,1.79186821e-01,2.38155067e-01,2.29757465e-03,3.73031526e-07
3.72082787e+01,3.41781080e-02,4.49807309e-02,2.41655434e-04,6.58183623e-08
3.81915474e+01,3.59635521e-03,4.68843151e-03,1.87056430e-05,1.33863249e-08
3.92001228e+01,3.41265957e-04,4.45703568e-04,3.27761131e-06,3.37558070e-09
4.02346535e+01,2.09356585e-05,2.72480793e-05,5.80989877e-07,6.48153420e-10
4.12958107e+01,1.06995890e-06,1.42197621e-06,1.25204210e-07,2.47644179e-11
4.23842850e+01,6.37276173e-07,8.49093908e-07,2.33297097e-08,1.49570790e-11
4.35007744e+01,1.83647431e-09,2.64660560e-09,8.94877158e-11,2.38059203e-14
4.46459999e+01,1.66731284e-09,2.23629071e-09,1.20821797e-10,7.97059020e-14
4.58207016e+01,4.66880257e-10,6.22162544e-10,1.95458962e-11,1.53344727e-14
4.70256386e+01,1.37973162e-12,1.80899794e-12,9.75692983e-14,6.21167352e-18
4.82615852e+01,6.10827740e-13,8.15761683e-13,2.99840075e-14,3.21504032e-18
4.95293465e+01,1.80401268e-15,2.36186095e-15,6.29793746e-17,3.92129700e-19
5.08297386e+01,3.69641367e-16,4.66687467e-16,1.60450602e-18,8.49824439e-21
5.21635971e+01,1.62069167e-18,1.78826440e-18,7.87482457e-19,1.78541993e-22
5.35317917e+01,5.46523297e-19,6.84182178e-19,2.57322108e-20,4.37098835e-24
5.49351997e+01,6.45579652e-21,1.22402390e-20,2.74716860e-22,7.01638897e-26
5.63747253e+01,1.96228708e-22,2.54710489e-22,1.23487994e-23,1.88660226e-27
5.78513031e+01,4.41636599e-24,7.02977145e-24,1.37762700e-25,4.49889892e-29
5.93278885e+01,9.96726617e-26,1.21012409e-25,6.88370580e-27,1.33603566e-30
6.08044662e+01,2.61258290e-27,4.39574251e-27,8.82615596e-29,3.30376625e-32
6.22810478e+01,7.80546485e-29,9.53892879e-29,5.32758340e-30,1.53687502e-33
6.37576256e+01,2.31464843e-30,3.39465616e-30,7.60500999e-32,3.43188015e-35
6.52341995e+01,8.56599719e-32,1.03364463e-31,5.86787788e-33,2.08499759e-36
6.67107849e+01,2.29109414e-33,3.38348123e-33,8.02589087e-35,3.34644086e-38
6.81873703e+01,7.54625244e-35,9.17863297e-35,4.82696874e-36,2.36399051e-39
6.96639481e+01,1.97086185e-36,3.39112686e-36,6.90097455e-38,3.08285662e-41
7.11405258e+01,8.65820282e-38,1.19913313e-37,5.31652637e-39,0.00000000e+00
7.26171036e+01,3.21878257e-39,5.15117315e-39,1.26116862e-40,0.00000000e+00
7.40936813e+01,1.23314265e-40,1.86372696e-40,5.60519386e-42,0.00000000e+00
7.55702591e+01,0.00000000e+00,1.40129846e-42,0.00000000e+00,0.00000000e+00
7.70468445e+01,0.00000000e+00,0.00000000e+00,0.00000000e+00,0.00000000e+00
7.85234222e+01,0.00000000e+00,0.00000000e+00,0.00000000e+00,0.00000000e+00
8.00000000e+01,0.00000000e+00,0.00000000e+00,0.00000000e+00,0.00000000e+00
