Height (km), 7_8 um ash conc (g/kg), 15_6 um ash conc (g/kg), 125 um ash conc (g/kg), 1 mm ash conc (g/kg)
0.00000000e+00,0.00000000e+00,0.00000000e+00,0.00000000e+00,0.00000000e+00
3.99999991e-02,7.22332805e-10,1.58967073e-09,4.32687415e-08,1.44578576e+00
7.99999982e-02,5.13299048e-09,1.26679085e-08,4.10571403e-07,4.03222227e+00
1.19999997e-01,2.22480168e-08,6.55874572e-08,1.89087166e-06,8.43910027e+00
1.59999996e-01,2.23152085e-07,7.70574729e-07,5.88819876e-06,1.36712418e+01
2.00000003e-01,3.78441626e-07,1.38675227e-06,1.09831617e-05,1.43290405e+01
2.39999995e-01,9.71439704e-07,3.59019418e-06,1.40894372e-05,2.09766045e+01
2.80000001e-01,1.65393249e-06,6.18122613e-06,2.56477397e-05,2.23991947e+01
3.19999993e-01,2.33903825e-06,9.05072920e-06,2.52644313e-05,3.00283985e+01
3.60000014e-01,3.76980415e-06,1.44633268e-05,4.44172110e-05,3.12869148e+01
4.00000006e-01,6.27536156e-06,2.79282267e-05,5.78392755e-05,3.92796440e+01
4.39999998e-01,1.37474281e-05,5.76224302e-05,1.38553485e-04,4.05829697e+01
4.79999989e-01,2.73958103e-05,1.21235753e-04,1.92373656e-04,4.92667198e+01
5.19999981e-01,4.93846674e-05,1.96584821e-04,4.44774079e-04,5.12161751e+01
5.60000002e-01,9.79599427e-05,3.72647366e-04,6.96935691e-04,6.19771652e+01
6.00000024e-01,1.55596339e-04,5.56718325e-04,1.34945312e-03,6.52697983e+01
6.41029537e-01,3.62594321e-04,1.20504107e-03,2.23368430e-03,7.49585724e+01
6.83115125e-01,4.94731707e-04,1.59008126e-03,3.95468296e-03,7.86386566e+01
7.26283848e-01,8.08735669e-04,2.45347386e-03,4.93857358e-03,8.35732498e+01
7.70563781e-01,1.43161742e-03,4.05899202e-03,7.70065980e-03,9.12569275e+01
8.15983355e-01,3.13046528e-03,7.85508472e-03,1.26196044e-02,1.01811012e+02
8.62571895e-01,4.05288953e-03,9.27213673e-03,1.53498370e-02,1.09746323e+02
9.10359621e-01,6.77425181e-03,1.37025816e-02,2.10617501e-02,1.25596703e+02
9.59377348e-01,8.15229490e-03,1.48804542e-02,2.73852833e-02,1.37511169e+02
1.00965667e+00,1.10352030e-02,1.92699805e-02,3.77858207e-02,1.54662827e+02
1.06123006e+00,1.41636329e-02,2.45556738e-02,4.94602062e-02,1.75103806e+02
1.11413085e+00,1.67490095e-02,2.96543520e-02,6.30966499e-02,2.02999817e+02
1.16839325e+00,2.11163294e-02,3.90389897e-02,8.37548524e-02,2.35840805e+02
1.22405231e+00,2.99447216e-02,5.26460446e-02,1.04535095e-01,2.74657898e+02
1.28114390e+00,4.13215980e-02,6.28391206e-02,1.29634172e-01,3.24812012e+02
1.33970511e+00,4.25967053e-02,5.61581478e-02,1.53347611e-01,3.73296936e+02
1.39977336e+00,2.05868242e+04,2.88217422e+04,1.92788516e+04,1.58003833e+03
1.46138775e+00,2.53103320e+04,3.53943047e+04,2.13886797e+04,1.78339722e+03
1.52458799e+00,1.56712373e+04,2.19113672e+04,1.33906602e+04,1.55366492e+03
1.58941495e+00,1.53619941e+04,2.14920273e+04,1.36879062e+04,1.78184155e+03
1.65591037e+00,1.50525488e+04,2.10609570e+04,1.34877061e+04,1.80540894e+03
1.72411728e+00,1.37501055e+04,1.92378672e+04,1.22720703e+04,1.72528052e+03
1.79407966e+00,1.19860566e+04,1.67698262e+04,1.06974277e+04,1.67651599e+03
1.86584306e+00,1.05829912e+04,1.48088672e+04,9.53470703e+03,1.66055200e+03
1.93945324e+00,1.01999551e+04,1.42771182e+04,9.37992969e+03,1.79575366e+03
2.01495814e+00,1.09226846e+04,1.52943809e+04,1.03168018e+04,2.07693262e+03
2.09240627e+00,1.27323086e+04,1.78342773e+04,1.23499590e+04,2.49244556e+03
2.17184782e+00,1.55568984e+04,2.17957969e+04,1.54149131e+04,3.09312207e+03
2.25333428e+00,1.87014844e+04,2.62043555e+04,1.87640547e+04,3.65339258e+03
2.33691788e+00,2.10992500e+04,2.95634883e+04,2.11981738e+04,3.94672437e+03
2.42265272e+00,2.22584102e+04,3.11849434e+04,2.22374688e+04,3.95024146e+03
2.51059437e+00,2.23884492e+04,3.13626641e+04,2.21126992e+04,3.81796362e+03
2.60079956e+00,2.14323125e+04,3.00172500e+04,2.08195352e+04,3.43418335e+03
2.69332647e+00,1.97147871e+04,2.76063594e+04,1.88397891e+04,3.10529932e+03
2.78823495e+00,1.78885664e+04,2.50451836e+04,1.68555312e+04,2.84218872e+03
2.88558602e+00,1.61322803e+04,2.25832402e+04,1.50095586e+04,2.63199023e+03
2.98544264e+00,1.45109668e+04,2.03116172e+04,1.33736475e+04,2.49483398e+03
3.08786964e+00,1.32152930e+04,1.84974766e+04,1.21345273e+04,2.46390356e+03
3.19293284e+00,1.24542266e+04,1.74329277e+04,1.14554551e+04,2.45750781e+03
3.30070019e+00,1.20269199e+04,1.68360508e+04,1.11154727e+04,2.53470068e+03
3.41124129e+00,1.16881562e+04,1.63632881e+04,1.08750645e+04,2.60024536e+03
3.52462745e+00,1.14929795e+04,1.60913770e+04,1.07653359e+04,2.66949561e+03
3.64093208e+00,1.12839893e+04,1.58000186e+04,1.06398105e+04,2.73620410e+03
3.76023054e+00,1.10779863e+04,1.55130098e+04,1.05249785e+04,2.81320605e+03
3.88259912e+00,1.09935371e+04,1.53962676e+04,1.05230547e+04,2.88743066e+03
4.00811720e+00,1.10976309e+04,1.55436260e+04,1.07038115e+04,2.99989844e+03
4.13686609e+00,1.15958457e+04,1.62429141e+04,1.12660703e+04,3.09792041e+03
4.26892853e+00,1.24757793e+04,1.74764688e+04,1.21838496e+04,3.29597290e+03
4.40439081e+00,1.37311357e+04,1.92359492e+04,1.34781270e+04,3.48318652e+03
4.54333878e+00,1.55759062e+04,2.18211602e+04,1.53717812e+04,3.81050708e+03
4.68586397e+00,1.76163105e+04,2.46799727e+04,1.74569766e+04,4.10684912e+03
4.83205652e+00,1.93144062e+04,2.70586348e+04,1.91768477e+04,4.38435596e+03
4.98201227e+00,2.04852031e+04,2.86974863e+04,2.03056367e+04,4.44586133e+03
5.13582754e+00,2.09112383e+04,2.92922676e+04,2.06353477e+04,4.44999756e+03
5.29360199e+00,2.06923516e+04,2.89832168e+04,2.02776211e+04,4.28038477e+03
5.45543718e+00,1.99523594e+04,2.79439297e+04,1.93729883e+04,4.11325781e+03
5.62143755e+00,1.87567812e+04,2.62671621e+04,1.80467539e+04,3.83017041e+03
5.79171038e+00,1.76559238e+04,2.47234453e+04,1.68331523e+04,3.71417725e+03
5.96636629e+00,1.67280078e+04,2.34224355e+04,1.58259219e+04,3.51477979e+03
6.14551687e+00,1.58757158e+04,2.22293105e+04,1.49880518e+04,3.48763721e+03
6.32927942e+00,1.55179951e+04,2.17290254e+04,1.46492754e+04,3.43707349e+03
6.51777077e+00,1.55378584e+04,2.17564531e+04,1.46513574e+04,3.42371973e+03
6.71111441e+00,1.53368213e+04,2.14740898e+04,1.44662734e+04,3.45096045e+03
6.90943432e+00,1.47076309e+04,2.05928516e+04,1.39083145e+04,3.39570410e+03
7.11285782e+00,1.41694033e+04,1.98396680e+04,1.34428086e+04,3.36563916e+03
7.32151794e+00,1.37597676e+04,1.92666504e+04,1.30980850e+04,3.32054663e+03
7.53554821e+00,1.32323477e+04,1.85292539e+04,1.26719229e+04,3.27018286e+03
7.75508738e+00,1.27826816e+04,1.79009648e+04,1.23401855e+04,3.20703760e+03
7.98027754e+00,1.25253643e+04,1.75418809e+04,1.22119658e+04,3.16201465e+03
8.21126270e+00,1.26493564e+04,1.77164082e+04,1.24591230e+04,3.11196655e+03
8.44819450e+00,1.31630420e+04,1.84360508e+04,1.30878662e+04,3.13224170e+03
8.69122219e+00,1.37574629e+04,1.92693340e+04,1.38738447e+04,3.17062744e+03
8.94050789e+00,1.46253750e+04,2.04859688e+04,1.49948711e+04,3.27947607e+03
9.19620800e+00,1.56955068e+04,2.19846641e+04,1.63162998e+04,3.35925000e+03
9.45849037e+00,1.63064004e+04,2.28396367e+04,1.72183652e+04,3.41354883e+03
9.72752285e+00,1.68283262e+04,2.35691562e+04,1.80506797e+04,3.40791895e+03
1.00034800e+01,1.70915000e+04,2.39355586e+04,1.87271270e+04,3.41859204e+03
1.02865391e+01,1.70252969e+04,2.38421172e+04,1.92332500e+04,3.41418799e+03
1.05768833e+01,1.73745039e+04,2.43293906e+04,2.00420430e+04,3.51025610e+03
1.08747025e+01,1.71137617e+04,2.39640801e+04,2.03466719e+04,3.58433984e+03
1.11801853e+01,1.72751426e+04,2.41919609e+04,2.12091758e+04,3.76615869e+03
1.14935322e+01,1.76035996e+04,2.46521367e+04,2.21369434e+04,3.89276074e+03
1.18149433e+01,1.59595283e+04,2.23537305e+04,2.14075449e+04,3.83390552e+03
1.21446266e+01,1.63236172e+04,2.28685684e+04,2.32552168e+04,3.99477905e+03
1.24827967e+01,1.79776133e+04,2.51934395e+04,2.60785605e+04,4.29710645e+03
1.28296700e+01,1.93472852e+04,2.71290254e+04,2.86635684e+04,4.50849707e+03
1.31854706e+01,2.06350684e+04,2.89725430e+04,3.17719004e+04,4.71923828e+03
1.35504293e+01,2.23423359e+04,3.14009062e+04,3.54192344e+04,4.98210840e+03
1.39247818e+01,2.68665586e+04,3.77545000e+04,4.07091328e+04,5.21914844e+03
1.43087692e+01,2.31435117e+04,3.26208164e+04,3.84429375e+04,4.75135205e+03
1.47026405e+01,2.34463086e+04,3.31290234e+04,3.94451250e+04,4.88791211e+03
1.51066484e+01,3.03347617e+04,4.28492617e+04,4.48975938e+04,5.54358398e+03
1.55210552e+01,2.88260605e+04,4.07997891e+04,4.28043008e+04,5.28758643e+03
1.59461288e+01,2.59897656e+04,3.68338672e+04,3.93723438e+04,4.96688281e+03
1.63821430e+01,2.92314590e+04,4.13014414e+04,4.09142969e+04,5.19869287e+03
1.68293781e+01,3.05105078e+04,4.30149922e+04,4.16511094e+04,5.38792969e+03
1.72881241e+01,3.20614648e+04,4.51911016e+04,4.24281328e+04,5.58493311e+03
1.77586803e+01,3.52590078e+04,4.96970391e+04,4.35082891e+04,5.63116895e+03
1.82413464e+01,3.89136641e+04,5.48568828e+04,4.48205977e+04,5.72502100e+03
1.87364349e+01,4.56430703e+04,6.42470859e+04,4.71622500e+04,5.83520801e+03
1.92442665e+01,4.86970039e+04,6.84307188e+04,4.78847383e+04,5.84372852e+03
1.97651691e+01,5.04124883e+04,7.08192500e+04,4.87676602e+04,5.84118945e+03
2.02994785e+01,5.54326406e+04,7.77563594e+04,5.20739219e+04,5.86135938e+03
2.08475418e+01,6.07520898e+04,8.50468750e+04,5.58461953e+04,5.70649219e+03
2.14097099e+01,6.34314922e+04,8.86978516e+04,5.56286562e+04,5.44539551e+03
2.19863453e+01,6.45588320e+04,9.01527500e+04,5.43654375e+04,5.42190625e+03
2.25778236e+01,6.36574141e+04,8.88035000e+04,5.31683398e+04,5.35210645e+03
2.31845264e+01,6.21704766e+04,8.67356875e+04,5.12414336e+04,4.77448535e+03
2.38068466e+01,6.43612734e+04,8.97861719e+04,5.06852812e+04,4.55773389e+03
2.44451809e+01,6.11973477e+04,8.53359375e+04,4.66894141e+04,3.60762598e+03
2.50999470e+01,5.15758711e+04,7.18691875e+04,3.80717812e+04,2.12587207e+03
2.57715645e+01,4.72482031e+04,6.59174531e+04,3.58869531e+04,1.86077161e+03
2.64604683e+01,4.33909844e+04,6.05005273e+04,3.05905391e+04,1.14992700e+03
2.71671047e+01,3.33731836e+04,4.64448594e+04,2.15712637e+04,5.08005981e+02
2.78919277e+01,2.45012012e+04,3.40481484e+04,1.34911211e+04,1.29663239e+02
2.86354065e+01,1.53293184e+04,2.12686641e+04,6.80054443e+03,3.69689789e+01
2.93980217e+01,9.49596289e+03,1.31713135e+04,4.64652930e+03,1.91271248e+01
3.01802654e+01,8.79744531e+03,1.21881855e+04,4.24882031e+03,5.33251572e+00
3.09826431e+01,7.38762988e+03,1.02205059e+04,3.12325415e+03,6.81956053e-01
3.18056717e+01,5.48331152e+03,7.59357715e+03,2.34178955e+03,3.23086381e-01
3.26498833e+01,4.46896729e+03,6.19245605e+03,1.89270300e+03,3.62788364e-02
3.35158234e+01,3.38609131e+03,4.68450049e+03,1.19456946e+03,3.76127400e-02
3.44040565e+01,1.94649939e+03,2.68974316e+03,6.63696594e+02,1.56501532e-02
3.53151436e+01,1.84086072e+03,2.54829297e+03,6.68838867e+02,1.96119659e-02
3.62496834e+01,1.30464954e+03,1.79780505e+03,2.78158447e+02,1.70521531e-03
3.72082787e+01,1.14864136e+03,1.58108582e+03,3.54887024e+02,1.13166845e-03
3.81915474e+01,1.32157568e+03,1.82542651e+03,3.81157227e+02,7.08601947e-05
3.92001228e+01,1.07380383e+03,1.47407471e+03,1.41147858e+02,4.97438887e-04
4.02346535e+01,5.63564270e+02,7.66911743e+02,5.02367897e+01,1.17973832e-04
4.12958107e+01,2.04302155e+02,2.75750732e+02,1.25956192e+01,6.13026059e-05
4.23842850e+01,3.83532104e+01,5.14588661e+01,3.22800398e+00,4.17366755e-05
4.35007744e+01,1.43527040e+01,1.95050220e+01,2.79297709e+00,1.61298267e-05
4.46459999e+01,1.80365334e+01,2.46251507e+01,2.32773018e+00,1.58605744e-05
4.58207016e+01,5.35227966e+00,7.17414379e+00,9.16303173e-02,2.96152848e-06
4.70256386e+01,3.91630717e-02,4.80677783e-02,1.04289713e-04,3.29098270e-07
4.82615852e+01,1.14158234e-02,1.49945244e-02,2.91333767e-04,5.66136382e-09
4.95293465e+01,3.64201330e-02,4.75903004e-02,1.56918395e-05,2.33579511e-09
5.08297386e+01,1.24003913e-04,1.62205630e-04,3.23946807e-07,1.02487394e-10
5.21635971e+01,4.20909164e-05,5.30864236e-05,1.88922243e-07,1.78960980e-12
5.35317917e+01,5.74927242e-07,7.32104809e-07,2.13476320e-10,9.76321075e-14
5.49351997e+01,2.73023950e-08,4.45691271e-08,1.78434101e-10,3.04443494e-16
5.63747253e+01,5.64966796e-10,1.11723231e-09,1.08264946e-13,7.23729170e-17
5.78513031e+01,1.83776397e-11,2.91066476e-11,9.56383884e-14,2.70509931e-17
5.93278885e+01,8.58975217e-13,2.05786321e-12,2.80028133e-17,5.56275085e-19
6.08044662e+01,1.14059712e-14,1.74410691e-14,4.62309987e-17,2.18505785e-20
6.22810478e+01,1.41124953e-16,9.72805587e-16,1.03941605e-17,9.40911787e-22
6.37576256e+01,6.76607602e-17,6.52044044e-17,2.97480159e-20,2.12543725e-23
6.52341995e+01,4.25636703e-18,7.28398207e-18,1.41467482e-20,1.26127410e-24
6.67107849e+01,6.48547922e-20,6.74719981e-20,2.97118338e-23,2.56695970e-26
6.81873703e+01,6.22535846e-21,9.00288111e-21,1.35271328e-23,1.47502034e-27
6.96639481e+01,8.49318511e-23,9.72136076e-23,8.17532425e-26,3.36150639e-29
7.11405258e+01,7.87787502e-24,1.07725307e-23,1.59068871e-26,1.76953766e-30
7.26171036e+01,1.32630469e-25,1.61325987e-25,1.83131442e-28,4.87329601e-32
7.40936813e+01,6.98522542e-27,9.38595718e-27,1.34209843e-29,1.56589035e-33
7.55702591e+01,1.16157854e-28,1.46665981e-28,1.79717734e-31,4.22899016e-35
7.70468445e+01,3.16974215e-30,4.19712308e-30,5.76366480e-33,7.19401431e-37
7.85234222e+01,3.60737381e-32,4.56580726e-32,5.58871513e-35,1.34973068e-38
8.00000000e+01,9.00556287e-33,1.15127042e-32,1.54697697e-35,5.96112367e-39
