Height (km), 7_8 um ash conc (g/kg), 15_6 um ash conc (g/kg), 125 um ash conc (g/kg), 1 mm ash conc (g/kg)
0.00000000e+00,0.00000000e+00,0.00000000e+00,0.00000000e+00,0.00000000e+00
3.99999991e-02,9.65954920e-12,1.48021595e-11,8.24185664e-10,2.10394673e-02
7.99999982e-02,2.78460189e-11,4.35926746e-11,3.41856921e-09,6.08643740e-02
1.19999997e-01,7.07389911e-11,1.10985714e-10,7.77877673e-09,1.26566648e-01
1.59999996e-01,2.17021789e-10,3.40584116e-10,2.13732569e-08,1.90784574e-01
2.00000003e-01,5.19469801e-10,8.21151258e-10,9.23411534e-08,2.27645501e-01
2.39999995e-01,1.16791599e-09,1.84704185e-09,4.10802812e-07,4.15422559e-01
2.80000001e-01,2.47878340e-09,3.93085919e-09,1.46706589e-06,5.48429966e-01
3.19999993e-01,5.47002044e-09,8.69326300e-09,4.62195476e-06,8.21093798e-01
3.60000014e-01,9.69646408e-09,1.54247335e-08,1.32019841e-05,1.00609684e+00
4.00000006e-01,1.73293309e-08,2.75692251e-08,3.01093241e-05,1.33152902e+00
4.39999998e-01,3.05420080e-08,4.87020131e-08,5.28798410e-05,1.55070412e+00
4.79999989e-01,4.93669106e-08,7.89787435e-08,9.25835120e-05,1.90044236e+00
5.19999981e-01,8.02165090e-08,1.29022993e-07,1.55403002e-04,2.18423653e+00
5.60000002e-01,1.29463828e-07,2.10014733e-07,2.45532108e-04,2.55913544e+00
6.00000024e-01,2.11873711e-07,3.48057569e-07,3.92439077e-04,2.91062546e+00
6.41029537e-01,3.53987446e-07,5.90431341e-07,5.80084918e-04,3.34058619e+00
6.83115125e-01,5.96027974e-07,1.01177261e-06,8.34931619e-04,3.78095293e+00
7.26283848e-01,1.35145604e-06,2.37276367e-06,1.60779769e-03,4.27453423e+00
7.70563781e-01,2.17550132e-06,3.90614878e-06,2.26071011e-03,4.83025026e+00
8.15983355e-01,6.23167080e-06,1.15085259e-05,5.42140193e-03,5.43329239e+00
8.62571895e-01,1.58735093e-05,2.92488712e-05,1.03165172e-02,6.06578588e+00
9.10359621e-01,6.22382358e-05,1.12322574e-04,2.19868850e-02,6.75024128e+00
9.59377348e-01,2.01891700e-04,3.58558114e-04,3.89670059e-02,7.46791124e+00
1.00965667e+00,5.81120257e-04,1.01381307e-03,6.49181455e-02,8.22488976e+00
1.06123006e+00,1.32375408e-03,2.27481499e-03,9.46846381e-02,9.02664089e+00
1.11413085e+00,2.54011806e-03,4.30164253e-03,1.18651092e-01,9.88706017e+00
1.16839325e+00,4.10395954e-03,6.84307097e-03,1.30476952e-01,1.08112059e+01
1.22405231e+00,5.72085334e-03,9.40313097e-03,1.29904628e-01,1.17747669e+01
1.28114390e+00,7.13167386e-03,1.15376916e-02,1.21032007e-01,1.27649403e+01
1.33970511e+00,8.09647702e-03,1.29115190e-02,1.06676497e-01,1.37367411e+01
1.39977336e+00,2.02033555e+04,2.83018438e+04,2.00720371e+04,2.15746729e+03
1.46138775e+00,2.60400312e+04,3.64569688e+04,2.45031680e+04,2.06282471e+03
1.52458799e+00,1.56738555e+04,2.19416250e+04,1.47955166e+04,1.36562891e+03
1.58941495e+00,1.47491240e+04,2.06536758e+04,1.42425996e+04,1.52294727e+03
1.65591037e+00,1.45567129e+04,2.03872305e+04,1.42072568e+04,1.62504309e+03
1.72411728e+00,1.45374199e+04,2.03620430e+04,1.42818389e+04,1.70455811e+03
1.79407966e+00,1.45868027e+04,2.04324492e+04,1.43939824e+04,1.77045166e+03
1.86584306e+00,1.46700459e+04,2.05499531e+04,1.45230176e+04,1.82782422e+03
1.93945324e+00,1.47595469e+04,2.06759922e+04,1.46468125e+04,1.87627271e+03
2.01495814e+00,1.48367500e+04,2.07846289e+04,1.47497773e+04,1.91598828e+03
2.09240627e+00,1.48992188e+04,2.08725176e+04,1.48318877e+04,1.94880103e+03
2.17184782e+00,1.49489336e+04,2.09424551e+04,1.48968066e+04,1.97602515e+03
2.25333428e+00,1.49762227e+04,2.09808945e+04,1.49356738e+04,1.99710547e+03
2.33691788e+00,1.49896895e+04,2.09999258e+04,1.49585332e+04,2.01471936e+03
2.42265272e+00,1.49962295e+04,2.10092266e+04,1.49729473e+04,2.03017749e+03
2.51059437e+00,1.49868818e+04,2.09962383e+04,1.49701289e+04,2.04235059e+03
2.60079956e+00,1.49592969e+04,2.09576758e+04,1.49480625e+04,2.05119995e+03
2.69332647e+00,1.49071436e+04,2.08846836e+04,1.49005938e+04,2.05599023e+03
2.78823495e+00,1.48455645e+04,2.07984941e+04,1.48440625e+04,2.05982080e+03
2.88558602e+00,1.48104385e+04,2.07493984e+04,1.48150508e+04,2.06788770e+03
2.98544264e+00,1.48184082e+04,2.07606797e+04,1.48295322e+04,2.08192432e+03
3.08786964e+00,1.48510303e+04,2.08064922e+04,1.48687266e+04,2.09942969e+03
3.19293284e+00,1.49041338e+04,2.08810078e+04,1.49286934e+04,2.12103662e+03
3.30070019e+00,1.49734160e+04,2.09781797e+04,1.50043066e+04,2.14398633e+03
3.41124129e+00,1.50476016e+04,2.10821855e+04,1.50835264e+04,2.16507739e+03
3.52462745e+00,1.51262754e+04,2.11924609e+04,1.51661680e+04,2.18787695e+03
3.64093208e+00,1.52225127e+04,2.13273281e+04,1.52652168e+04,2.21000806e+03
3.76023054e+00,1.53322451e+04,2.14810586e+04,1.53760303e+04,2.23414868e+03
3.88259912e+00,1.54476133e+04,2.16426562e+04,1.54909766e+04,2.25736450e+03
4.00811720e+00,1.55606426e+04,2.18009473e+04,1.56020957e+04,2.28098193e+03
4.13686609e+00,1.56365635e+04,2.19072109e+04,1.56738779e+04,2.29579443e+03
4.26892853e+00,1.56569883e+04,2.19356953e+04,1.56885879e+04,2.30449707e+03
4.40439081e+00,1.56180947e+04,2.18810703e+04,1.56435010e+04,2.30289502e+03
4.54333878e+00,1.54985391e+04,2.17134336e+04,1.55168818e+04,2.29300684e+03
4.68586397e+00,1.52981816e+04,2.14326172e+04,1.53100264e+04,2.26623340e+03
4.83205652e+00,1.50969219e+04,2.11506133e+04,1.51058027e+04,2.25202124e+03
4.98201227e+00,1.49188896e+04,2.09011875e+04,1.49263457e+04,2.23004224e+03
5.13582754e+00,1.47719062e+04,2.06952832e+04,1.47793975e+04,2.22316260e+03
5.29360199e+00,1.47793232e+04,2.07057812e+04,1.47922480e+04,2.24165356e+03
5.45543718e+00,1.49313242e+04,2.09188242e+04,1.49495703e+04,2.28420239e+03
5.62143755e+00,1.50883047e+04,2.11387852e+04,1.51096719e+04,2.32503809e+03
5.79171038e+00,1.53290801e+04,2.14761973e+04,1.53573145e+04,2.38524194e+03
5.96636629e+00,1.56000420e+04,2.18558164e+04,1.56303320e+04,2.44880933e+03
6.14551687e+00,1.56889883e+04,2.19803477e+04,1.57172734e+04,2.48847168e+03
6.32927942e+00,1.57497246e+04,2.20654805e+04,1.57816416e+04,2.51928906e+03
6.51777077e+00,1.57804258e+04,2.21084277e+04,1.58094414e+04,2.54241406e+03
6.71111441e+00,1.55694629e+04,2.18128359e+04,1.55960742e+04,2.53334229e+03
6.90943432e+00,1.55849062e+04,2.18345879e+04,1.56161084e+04,2.55061621e+03
7.11285782e+00,1.58117744e+04,2.21523379e+04,1.58378320e+04,2.58316895e+03
7.32151794e+00,1.57952695e+04,2.21292520e+04,1.58229102e+04,2.58609473e+03
7.53554821e+00,1.60158242e+04,2.24384863e+04,1.60547754e+04,2.63587354e+03
7.75508738e+00,1.66772344e+04,2.33651074e+04,1.67182168e+04,2.75054932e+03
7.98027754e+00,1.71130195e+04,2.39754883e+04,1.71479121e+04,2.79955444e+03
8.21126270e+00,1.70770820e+04,2.39246230e+04,1.70884160e+04,2.79450610e+03
8.44819450e+00,1.68112539e+04,2.35518945e+04,1.68103320e+04,2.75632178e+03
8.69122219e+00,1.67335156e+04,2.34427656e+04,1.67222305e+04,2.76469971e+03
8.94050789e+00,1.63461016e+04,2.28996211e+04,1.63161641e+04,2.72438159e+03
9.19620800e+00,1.54261709e+04,2.16106758e+04,1.53908984e+04,2.64218970e+03
9.45849037e+00,1.46853574e+04,2.05730137e+04,1.46603574e+04,2.60115601e+03
9.72752285e+00,1.43607891e+04,2.01184141e+04,1.43400898e+04,2.62357495e+03
1.00034800e+01,1.42339824e+04,1.99411875e+04,1.42358613e+04,2.69000708e+03
1.02865391e+01,1.49959385e+04,2.10091895e+04,1.50283203e+04,2.88439209e+03
1.05768833e+01,1.61087324e+04,2.25680742e+04,1.61445254e+04,3.09271191e+03
1.08747025e+01,1.63735938e+04,2.29395879e+04,1.64522969e+04,3.20664160e+03
1.11801853e+01,1.79017090e+04,2.50803672e+04,1.80090078e+04,3.44882910e+03
1.14935322e+01,1.80294062e+04,2.52583672e+04,1.81154238e+04,3.44426660e+03
1.18149433e+01,1.58785879e+04,2.22463203e+04,1.60517129e+04,3.21741406e+03
1.21446266e+01,1.76663184e+04,2.47513848e+04,1.79306875e+04,3.49725000e+03
1.24827967e+01,1.78208398e+04,2.49679336e+04,1.81900117e+04,3.54288330e+03
1.28296700e+01,1.63887715e+04,2.29639492e+04,1.70426191e+04,3.44024805e+03
1.31854706e+01,1.75831094e+04,2.46414258e+04,1.86392305e+04,3.71606812e+03
1.35504293e+01,1.99562480e+04,2.79718125e+04,2.14189727e+04,4.21311719e+03
1.39247818e+01,2.26555449e+04,3.17554375e+04,2.43950781e+04,4.64646680e+03
1.43087692e+01,2.34837715e+04,3.29207422e+04,2.55352695e+04,4.88591504e+03
1.47026405e+01,2.15561875e+04,3.02263516e+04,2.38734785e+04,4.83530420e+03
1.51066484e+01,2.16101133e+04,3.03075234e+04,2.39955547e+04,4.92909717e+03
1.55210552e+01,2.07050586e+04,2.90451836e+04,2.30628711e+04,4.74025977e+03
1.59461288e+01,1.86372266e+04,2.61572188e+04,2.10721309e+04,4.41713281e+03
1.63821430e+01,2.31531777e+04,3.24869180e+04,2.58631211e+04,4.94637695e+03
1.68293781e+01,3.30802266e+04,4.63917969e+04,3.64656875e+04,5.99709180e+03
1.72881241e+01,3.36074219e+04,4.71282734e+04,3.72389844e+04,5.74812695e+03
1.77586803e+01,2.45472734e+04,3.44244648e+04,2.94355801e+04,4.75155762e+03
1.82413464e+01,1.92878398e+04,2.70646016e+04,2.74015801e+04,4.50084961e+03
1.87364349e+01,1.91444629e+04,2.68941562e+04,2.99394336e+04,4.72972119e+03
1.92442665e+01,2.17473906e+04,3.06258594e+04,3.33001797e+04,5.00445410e+03
1.97651691e+01,2.66776250e+04,3.75727695e+04,3.64003906e+04,5.13820215e+03
2.02994785e+01,3.20800430e+04,4.51396016e+04,3.98030352e+04,5.24562012e+03
2.08475418e+01,4.08900078e+04,5.74427266e+04,4.42445430e+04,5.46690918e+03
2.14097099e+01,4.58218750e+04,6.42282031e+04,4.40962109e+04,5.12200732e+03
2.19863453e+01,4.87095078e+04,6.81694375e+04,4.59070898e+04,5.06907373e+03
2.25778236e+01,5.09950391e+04,7.13641250e+04,4.79006719e+04,5.23964648e+03
2.31845264e+01,5.13130625e+04,7.18030781e+04,4.74690547e+04,5.20848242e+03
2.38068466e+01,5.24215625e+04,7.33362812e+04,4.79844297e+04,5.31936182e+03
2.44451809e+01,5.40639453e+04,7.56275859e+04,4.92462422e+04,5.42981396e+03
2.50999470e+01,5.51030117e+04,7.70670469e+04,4.96227812e+04,5.61456836e+03
2.57715645e+01,5.29094688e+04,7.39985625e+04,4.75058438e+04,5.34985303e+03
2.64604683e+01,4.81126094e+04,6.72956094e+04,4.34825391e+04,5.02707471e+03
2.71671047e+01,4.84125781e+04,6.77388203e+04,4.48154141e+04,5.36150928e+03
2.78919277e+01,4.81132656e+04,6.73264688e+04,4.45856797e+04,5.24547070e+03
2.86354065e+01,4.74808711e+04,6.64346406e+04,4.44735117e+04,5.70619824e+03
2.93980217e+01,5.09757383e+04,7.13644375e+04,4.94261875e+04,6.76595752e+03
3.01802654e+01,5.39293555e+04,7.55057031e+04,5.20899531e+04,6.59659375e+03
3.09826431e+01,5.05457031e+04,7.07601641e+04,4.85071172e+04,5.62143555e+03
3.18056717e+01,4.77074844e+04,6.67777031e+04,4.50302617e+04,4.77226172e+03
3.26498833e+01,3.77113906e+04,5.27720078e+04,3.49347656e+04,3.65429150e+03
3.35158234e+01,3.06150977e+04,4.28224141e+04,2.74938965e+04,1.60619897e+03
3.44040565e+01,1.61524971e+04,2.25696895e+04,1.34453779e+04,5.77399170e+02
3.53151436e+01,1.56192246e+04,2.18401035e+04,1.39336289e+04,1.08068103e+03
3.62496834e+01,2.09669336e+04,2.93388633e+04,1.93868516e+04,1.10675452e+03
3.72082787e+01,2.48715391e+04,3.48024453e+04,2.27861758e+04,9.55733398e+02
3.81915474e+01,2.60276172e+04,3.64115000e+04,2.33149082e+04,5.37771851e+02
3.92001228e+01,1.35765293e+04,1.89726914e+04,1.11640879e+04,1.48990135e+01
4.02346535e+01,1.81138367e+03,2.52218604e+03,1.11371106e+03,1.40618742e-01
4.12958107e+01,7.90841446e+01,1.08190765e+02,1.09004154e+01,1.71275306e-02
4.23842850e+01,2.06519051e+01,2.83292446e+01,5.38232851e+00,1.71086158e-05
4.35007744e+01,1.48740501e+01,2.04308109e+01,3.43159819e+00,8.11927293e-06
4.46459999e+01,4.95586252e+00,6.76677322e+00,4.64865714e-01,1.68060990e-06
4.58207016e+01,1.41422069e+00,1.91045392e+00,4.82950173e-02,3.26702633e-07
4.70256386e+01,3.56634319e-01,4.78386581e-01,8.64646025e-03,7.59111884e-08
4.82615852e+01,9.11531299e-02,1.21850081e-01,3.06440331e-03,3.15664934e-08
4.95293465e+01,1.38005000e-02,1.83739439e-02,4.94003529e-04,8.69565575e-09
5.08297386e+01,5.36502013e-03,7.13945972e-03,1.57448390e-04,3.07848702e-09
5.21635971e+01,9.63733441e-07,1.19682920e-06,1.68958074e-08,8.56346894e-13
5.35317917e+01,1.25045844e-07,1.66255646e-07,1.66663447e-08,1.32467632e-13
5.49351997e+01,4.14363626e-07,5.29041358e-07,3.51697649e-09,2.92781424e-13
5.63747253e+01,1.09521392e-10,1.38287298e-10,2.30202619e-12,8.80367069e-17
5.78513031e+01,1.35424519e-10,1.71320541e-10,1.12561566e-12,1.48135193e-17
5.93278885e+01,1.41714372e-13,1.70103935e-13,8.81873530e-15,3.67073970e-18
6.08044662e+01,7.13976607e-14,8.98453133e-14,3.39647718e-16,8.24327970e-21
6.22810478e+01,5.68413569e-17,8.77993193e-17,1.21580388e-17,3.94564829e-21
6.37576256e+01,2.01416742e-17,2.11129447e-17,1.23310564e-18,9.12101647e-24
6.52341995e+01,4.32391377e-18,5.87985457e-18,1.66402906e-20,4.04287270e-24
6.67107849e+01,1.89925548e-20,2.10396491e-20,1.15370551e-21,8.71127080e-27
6.81873703e+01,4.40990664e-21,5.69368045e-21,2.29399726e-23,3.52697515e-27
6.96639481e+01,3.54206120e-23,4.26386451e-23,1.13245460e-24,1.92045669e-29
7.11405258e+01,3.39198080e-24,4.45172905e-24,3.24261121e-26,3.08530968e-30
7.26171036e+01,5.07421404e-26,6.12665617e-26,1.03807874e-27,3.29635741e-32
7.40936813e+01,2.22279606e-27,2.94590726e-27,4.96507659e-29,2.88224952e-33
7.55702591e+01,4.34111471e-29,5.61536412e-29,1.25624846e-30,5.47321879e-35
7.70468445e+01,1.49785440e-30,1.94468745e-30,4.52766511e-32,2.05704839e-36
7.85234222e+01,2.43129818e-32,3.13511573e-32,1.03922609e-33,3.39380475e-38
8.00000000e+01,3.70781004e-33,4.73977469e-33,1.72205882e-34,4.98301734e-39
