Height (km), 7_8 um ash conc (g/kg), 15_6 um ash conc (g/kg), 125 um ash conc (g/kg), 1 mm ash conc (g/kg)
0.00000000e+00,0.00000000e+00,0.00000000e+00,0.00000000e+00,0.00000000e+00
3.99999991e-02,4.56572714e-04,1.17684482e-03,4.67703678e-02,6.60951471e+00
7.99999982e-02,6.57567289e-04,1.65524846e-03,5.20791784e-02,6.71721792e+00
1.19999997e-01,8.68071220e-04,2.11751764e-03,5.54416180e-02,6.76333809e+00
1.59999996e-01,1.12407852e-03,2.65045650e-03,5.93750812e-02,6.84194708e+00
2.00000003e-01,1.36949832e-03,3.14481114e-03,6.55763671e-02,6.87197781e+00
2.39999995e-01,1.56026881e-03,3.55884153e-03,7.28522912e-02,6.94060040e+00
2.80000001e-01,1.75955973e-03,4.08415776e-03,8.48557651e-02,6.94646645e+00
3.19999993e-01,2.03244295e-03,4.86566126e-03,9.38927755e-02,7.05123234e+00
3.60000014e-01,2.50743725e-03,6.15388015e-03,1.06629275e-01,7.15154362e+00
4.00000006e-01,3.27303447e-03,8.05613771e-03,1.22450344e-01,7.31235123e+00
4.39999998e-01,4.45483346e-03,1.08337039e-02,1.38037562e-01,7.39784384e+00
4.79999989e-01,6.76850835e-03,1.56972241e-02,1.60706073e-01,7.53863430e+00
5.19999981e-01,1.07902549e-02,2.40208171e-02,1.82281733e-01,7.69169044e+00
5.60000002e-01,1.93604380e-02,4.04249355e-02,2.21253365e-01,7.79383564e+00
6.00000024e-01,3.65335494e-02,7.03781694e-02,2.38530025e-01,7.96134329e+00
6.41029537e-01,6.26917779e-02,1.16781302e-01,2.92778909e-01,7.85799265e+00
6.83115125e-01,1.03528306e-01,1.85938805e-01,3.01864862e-01,8.24501991e+00
7.26283848e-01,1.73883528e-01,3.03536505e-01,3.52830440e-01,8.04245186e+00
7.70563781e-01,2.73939103e-01,4.58285093e-01,4.04283255e-01,8.85017967e+00
8.15983355e-01,3.98776174e-01,6.26868248e-01,4.88464028e-01,8.40529156e+00
8.62571895e-01,4.66612875e-01,6.96382880e-01,5.16861141e-01,9.07435131e+00
9.10359621e-01,4.99246538e-01,7.27226913e-01,5.86013258e-01,8.69636345e+00
9.59377348e-01,4.95027065e-01,7.13980675e-01,5.97076416e-01,9.15653801e+00
1.00965667e+00,4.96705651e-01,7.12683856e-01,6.19564712e-01,9.07870865e+00
1.06123006e+00,5.01553416e-01,7.18311548e-01,7.01430082e-01,1.00709887e+01
1.11413085e+00,5.21371365e-01,7.47184157e-01,8.68510067e-01,9.83471489e+00
1.16839325e+00,5.65909863e-01,8.13981056e-01,1.14544559e+00,1.00542202e+01
1.22405231e+00,6.30593061e-01,9.11744952e-01,1.48530340e+00,1.05403900e+01
1.28114390e+00,7.30317473e-01,1.06122530e+00,1.89028573e+00,1.11268539e+01
1.33970511e+00,8.31567109e-01,1.20903707e+00,2.07877636e+00,1.18640671e+01
1.39977336e+00,1.95132656e+04,2.73163008e+04,1.81262246e+04,9.35466064e+02
1.46138775e+00,2.10072070e+04,2.93815977e+04,1.80782520e+04,1.07113220e+03
1.52458799e+00,1.46971660e+04,2.05521914e+04,1.25585371e+04,7.98351318e+02
1.58941495e+00,1.31237637e+04,1.83579863e+04,1.15114150e+04,8.54001953e+02
1.65591037e+00,1.21321387e+04,1.69739492e+04,1.07903955e+04,8.72707031e+02
1.72411728e+00,1.13531641e+04,1.58868809e+04,1.02244717e+04,8.95706238e+02
1.79407966e+00,1.10532041e+04,1.54703174e+04,1.01011553e+04,9.61338501e+02
1.86584306e+00,1.14358438e+04,1.60093867e+04,1.06189814e+04,1.09009766e+03
1.93945324e+00,1.23212344e+04,1.72520918e+04,1.16000508e+04,1.25835034e+03
2.01495814e+00,1.35913213e+04,1.90326465e+04,1.29177578e+04,1.44997424e+03
2.09240627e+00,1.53047324e+04,2.14335156e+04,1.46533262e+04,1.68253821e+03
2.17184782e+00,1.71068906e+04,2.39572246e+04,1.64117031e+04,1.87431104e+03
2.25333428e+00,1.83668867e+04,2.57185859e+04,1.74797070e+04,1.92745483e+03
2.33691788e+00,1.74159824e+04,2.43841562e+04,1.64289062e+04,1.75024133e+03
2.42265272e+00,1.48151338e+04,2.07421426e+04,1.39268809e+04,1.46528210e+03
2.51059437e+00,1.21279414e+04,1.69803672e+04,1.13921055e+04,1.20226404e+03
2.60079956e+00,1.06257432e+04,1.48790713e+04,1.00320840e+04,1.09631592e+03
2.69332647e+00,1.10871348e+04,1.55270664e+04,1.05202988e+04,1.16925061e+03
2.78823495e+00,1.22630957e+04,1.71743125e+04,1.16445156e+04,1.30957373e+03
2.88558602e+00,1.37732246e+04,1.92892129e+04,1.30878369e+04,1.48721472e+03
2.98544264e+00,1.49834512e+04,2.09827266e+04,1.42125820e+04,1.63259961e+03
3.08786964e+00,1.50440059e+04,2.10663223e+04,1.42696689e+04,1.68055493e+03
3.19293284e+00,1.55654834e+04,2.17961113e+04,1.47700977e+04,1.76069360e+03
3.30070019e+00,1.49059492e+04,2.08711602e+04,1.41100479e+04,1.66551575e+03
3.41124129e+00,1.18748203e+04,1.66286348e+04,1.13135527e+04,1.37062183e+03
3.52462745e+00,9.92455957e+03,1.39018105e+04,9.58796875e+03,1.19844836e+03
3.64093208e+00,1.07851738e+04,1.51100957e+04,1.04857158e+04,1.29988330e+03
3.76023054e+00,1.34056816e+04,1.87778008e+04,1.29054414e+04,1.51926843e+03
3.88259912e+00,1.54213760e+04,2.15958086e+04,1.46742139e+04,1.67206177e+03
4.00811720e+00,1.56472354e+04,2.19084492e+04,1.47904316e+04,1.67787622e+03
4.13686609e+00,1.45464375e+04,2.03658965e+04,1.37307363e+04,1.56748865e+03
4.26892853e+00,1.28086553e+04,1.79329668e+04,1.21058613e+04,1.39931238e+03
4.40439081e+00,1.08389316e+04,1.51749951e+04,1.02496318e+04,1.19852991e+03
4.54333878e+00,9.20072266e+03,1.28811006e+04,8.70772949e+03,1.04590503e+03
4.68586397e+00,8.03341748e+03,1.12470635e+04,7.62360889e+03,9.32163574e+02
4.83205652e+00,7.39720020e+03,1.03562256e+04,7.02502344e+03,8.72303345e+02
4.98201227e+00,7.14676221e+03,1.00056729e+04,6.79166992e+03,8.36326294e+02
5.13582754e+00,7.41251758e+03,1.03779932e+04,7.05010693e+03,8.67671692e+02
5.29360199e+00,7.98270361e+03,1.11764453e+04,7.59253760e+03,9.14983337e+02
5.45543718e+00,8.35300977e+03,1.16951396e+04,7.95034814e+03,9.52061646e+02
5.62143755e+00,8.32857617e+03,1.16614443e+04,7.94792334e+03,9.50819397e+02
5.79171038e+00,7.79664209e+03,1.09171426e+04,7.46626025e+03,8.97184448e+02
5.96636629e+00,6.75044189e+03,9.45302441e+03,6.50933105e+03,7.99320251e+02
6.14551687e+00,5.79319385e+03,8.11398877e+03,5.65273926e+03,7.18291199e+02
6.32927942e+00,5.26588379e+03,7.37639795e+03,5.18554053e+03,6.74529236e+02
6.51777077e+00,5.16661328e+03,7.23735986e+03,5.10290869e+03,6.66078247e+02
6.71111441e+00,5.70080420e+03,7.98477393e+03,5.60547510e+03,7.15849243e+02
6.90943432e+00,6.36073535e+03,8.90779883e+03,6.20900684e+03,7.69946411e+02
7.11285782e+00,6.52411768e+03,9.13650195e+03,6.36866064e+03,7.88492065e+02
7.32151794e+00,6.23162305e+03,8.72807129e+03,6.12835840e+03,7.68816528e+02
7.53554821e+00,5.42178174e+03,7.59595752e+03,5.41603564e+03,6.96905518e+02
7.75508738e+00,4.60783887e+03,6.45805176e+03,4.69548926e+03,6.17260498e+02
7.98027754e+00,4.48984961e+03,6.29389160e+03,4.61473291e+03,6.01796570e+02
8.21126270e+00,4.93774121e+03,6.92089746e+03,5.03744629e+03,6.35929016e+02
8.44819450e+00,5.40081738e+03,7.57024658e+03,5.50665283e+03,6.94233032e+02
8.69122219e+00,6.15298291e+03,8.62591113e+03,6.27677881e+03,7.90136230e+02
8.94050789e+00,6.59886865e+03,9.25125977e+03,6.68680518e+03,8.19990112e+02
9.19620800e+00,5.77809814e+03,8.10179736e+03,5.85411182e+03,7.11730164e+02
9.45849037e+00,4.75490820e+03,6.67019922e+03,4.88892334e+03,6.14262939e+02
9.72752285e+00,4.78671387e+03,6.71461523e+03,4.92351074e+03,6.19668701e+02
1.00034800e+01,5.58506152e+03,7.82968018e+03,5.64710059e+03,6.87936768e+02
1.02865391e+01,6.40979004e+03,8.98266699e+03,6.42176514e+03,7.72326599e+02
1.05768833e+01,6.65602441e+03,9.32926758e+03,6.70412842e+03,8.24132385e+02
1.08747025e+01,6.28286865e+03,8.81037695e+03,6.40499902e+03,8.06398621e+02
1.11801853e+01,5.88112793e+03,8.25018945e+03,6.00342773e+03,7.47935364e+02
1.14935322e+01,6.19841650e+03,8.69413184e+03,6.21161035e+03,7.37155151e+02
1.18149433e+01,7.55668799e+03,1.05920078e+04,7.31894873e+03,8.02761597e+02
1.21446266e+01,8.84810449e+03,1.23942461e+04,8.31083984e+03,8.48360229e+02
1.24827967e+01,9.49216797e+03,1.32896875e+04,8.71692773e+03,8.43831116e+02
1.28296700e+01,9.77057227e+03,1.36722471e+04,8.77725781e+03,8.05413818e+02
1.31854706e+01,9.68457715e+03,1.35434980e+04,8.40667773e+03,7.34140259e+02
1.35504293e+01,8.88831738e+03,1.24129492e+04,7.38826172e+03,6.27236328e+02
1.39247818e+01,7.28069629e+03,1.01589688e+04,5.93293457e+03,5.05802368e+02
1.43087692e+01,6.09186279e+03,8.49822559e+03,4.94087158e+03,4.15090668e+02
1.47026405e+01,5.43700342e+03,7.58205566e+03,4.32188477e+03,3.51812164e+02
1.51066484e+01,4.43510596e+03,6.18088965e+03,3.43999414e+03,2.60605408e+02
1.55210552e+01,3.51154932e+03,4.88868066e+03,2.56015308e+03,1.62729141e+02
1.59461288e+01,2.72056445e+03,3.78227002e+03,1.86437891e+03,1.20004128e+02
1.63821430e+01,2.08290869e+03,2.89778125e+03,1.54232605e+03,1.15085632e+02
1.68293781e+01,1.86347961e+03,2.59754077e+03,1.51039185e+03,1.21180443e+02
1.72881241e+01,1.87107202e+03,2.61172949e+03,1.58555310e+03,1.30407532e+02
1.77586803e+01,1.94576257e+03,2.71802637e+03,1.67287390e+03,1.25440468e+02
1.82413464e+01,1.81983020e+03,2.54233447e+03,1.53136377e+03,8.87326355e+01
1.87364349e+01,1.49440869e+03,2.08584961e+03,1.16151392e+03,4.71720695e+01
1.92442665e+01,1.24134375e+03,1.73086084e+03,8.87461304e+02,2.75059147e+01
1.97651691e+01,9.14283691e+02,1.27311951e+03,5.83852844e+02,1.23947258e+01
2.02994785e+01,3.38197845e+02,4.68830719e+02,1.50516129e+02,6.22274697e-01
2.08475418e+01,3.01556091e+01,4.08378487e+01,1.49408054e+00,4.35248669e-03
2.14097099e+01,1.11150122e+01,1.49425030e+01,6.62664056e-01,2.63856433e-04
2.19863453e+01,5.74348545e+00,7.68187761e+00,2.32057080e-01,1.75504101e-06
2.25778236e+01,1.08654714e+00,1.44167566e+00,4.83054742e-02,4.84654720e-07
2.31845264e+01,1.25753328e-01,1.62923127e-01,1.78564480e-03,1.80136880e-07
2.38068466e+01,1.08826961e-02,1.33249797e-02,5.47873606e-06,9.91670817e-08
2.44451809e+01,8.24729213e-04,1.03168061e-03,1.16593071e-06,4.98126091e-08
2.50999470e+01,2.82565597e-04,3.68260837e-04,2.61504226e-07,1.69422130e-08
2.57715645e+01,1.72970133e-04,2.15727705e-04,1.32003294e-07,4.78586726e-09
2.64604683e+01,3.55332086e-05,4.07514672e-05,1.05165569e-07,8.63131233e-10
2.71671047e+01,2.87348303e-06,3.08601329e-06,4.23657980e-08,1.14897869e-10
2.78919277e+01,3.86966605e-07,4.12683846e-07,1.39014160e-08,2.03017950e-11
2.86354065e+01,4.35412169e-08,4.70200696e-08,1.91631866e-09,2.66865653e-12
2.93980217e+01,3.95547239e-09,4.38598446e-09,2.37178444e-10,2.92697154e-13
3.01802654e+01,4.15299212e-10,4.92186014e-10,2.11398642e-11,2.68074239e-14
3.09826431e+01,4.57976920e-11,5.38968002e-11,1.26313088e-12,2.18161065e-15
3.18056717e+01,4.04742732e-12,4.63493436e-12,8.89998931e-14,1.50583664e-16
3.26498833e+01,2.35992947e-13,2.66186866e-13,5.62081535e-15,7.44716661e-18
3.35158234e+01,8.89433892e-15,1.03314370e-14,2.60851075e-16,4.03340634e-19
3.44040565e+01,3.21035281e-16,4.05448096e-16,1.16443886e-17,2.04853137e-20
3.53151436e+01,1.29743337e-17,1.66124403e-17,5.56302588e-19,9.38018776e-22
3.62496834e+01,5.24174273e-19,6.71732127e-19,2.19233494e-20,3.52357440e-23
3.72082787e+01,1.79047800e-20,2.27780596e-20,7.47918494e-22,1.11202300e-24
3.81915474e+01,5.65718888e-22,6.97348648e-22,2.21164176e-23,3.02022608e-26
3.92001228e+01,1.74767968e-23,2.06778130e-23,5.83281239e-25,7.57299343e-28
4.02346535e+01,5.11198630e-25,5.87676131e-25,1.37354057e-26,1.77994175e-29
4.12958107e+01,1.34771601e-26,1.51340700e-26,2.90903003e-28,4.03321422e-31
4.23842850e+01,3.11348098e-28,3.43825969e-28,5.53536641e-30,8.71221018e-33
4.35007744e+01,6.25724370e-30,6.83069724e-30,9.47833069e-32,1.73353573e-34
4.46459999e+01,1.10610645e-31,1.19651760e-31,1.47231301e-33,3.12235808e-36
4.58207016e+01,1.75174115e-33,1.88349056e-33,2.11054888e-35,5.10198758e-38
4.70256386e+01,2.52709647e-35,2.70659009e-35,2.83947910e-37,7.52497275e-40
4.82615852e+01,3.34833273e-37,3.58281166e-37,3.62375783e-39,7.00649232e-42
4.95293465e+01,4.07917983e-39,4.36924861e-39,3.50324616e-41,0.00000000e+00
5.08297386e+01,3.92363570e-41,4.20389539e-41,0.00000000e+00,0.00000000e+00
5.21635971e+01,0.00000000e+00,0.00000000e+00,0.00000000e+00,0.00000000e+00
5.35317917e+01,0.00000000e+00,0.00000000e+00,0.00000000e+00,0.00000000e+00
5.49351997e+01,0.00000000e+00,0.00000000e+00,0.00000000e+00,0.00000000e+00
5.63747253e+01,0.00000000e+00,0.00000000e+00,0.00000000e+00,0.00000000e+00
5.78513031e+01,0.00000000e+00,0.00000000e+00,0.00000000e+00,0.00000000e+00
5.93278885e+01,0.00000000e+00,0.00000000e+00,0.00000000e+00,0.00000000e+00
6.08044662e+01,0.00000000e+00,0.00000000e+00,0.00000000e+00,0.00000000e+00
6.22810478e+01,0.00000000e+00,0.00000000e+00,0.00000000e+00,0.00000000e+00
6.37576256e+01,0.00000000e+00,0.00000000e+00,0.00000000e+00,0.00000000e+00
6.52341995e+01,0.00000000e+00,0.00000000e+00,0.00000000e+00,0.00000000e+00
6.67107849e+01,0.00000000e+00,0.00000000e+00,0.00000000e+00,0.00000000e+00
6.81873703e+01,0.00000000e+00,0.00000000e+00,0.00000000e+00,0.00000000e+00
6.96639481e+01,0.00000000e+00,0.00000000e+00,0.00000000e+00,0.00000000e+00
7.11405258e+01,0.00000000e+00,0.00000000e+00,0.00000000e+00,0.00000000e+00
7.26171036e+01,0.00000000e+00,0.00000000e+00,0.00000000e+00,0.00000000e+00
7.40936813e+01,0.00000000e+00,0.00000000e+00,0.00000000e+00,0.00000000e+00
7.55702591e+01,0.00000000e+00,0.00000000e+00,0.00000000e+00,0.00000000e+00
7.70468445e+01,0.00000000e+00,0.00000000e+00,0.00000000e+00,0.00000000e+00
7.85234222e+01,0.00000000e+00,0.00000000e+00,0.00000000e+00,0.00000000e+00
8.00000000e+01,0.00000000e+00,0.00000000e+00,0.00000000e+00,0.00000000e+00
