Height (km), 7_8 um ash conc (g/kg), 15_6 um ash conc (g/kg), 125 um ash conc (g/kg), 1 mm ash conc (g/kg)
0.00000000e+00,0.00000000e+00,0.00000000e+00,0.00000000e+00,0.00000000e+00
3.99999991e-02,9.06836067e-06,1.39023887e-05,8.02393242e-06,3.61046344e-02
7.99999982e-02,3.45382723e-05,5.30886173e-05,2.45775209e-05,1.04667678e-01
1.19999997e-01,8.05729942e-05,1.21138102e-04,3.37743004e-05,1.82036847e-01
1.59999996e-01,1.49298125e-04,2.20521149e-04,5.07320437e-05,3.17429125e-01
2.00000003e-01,2.37259010e-04,3.46461748e-04,7.14012931e-05,4.93962049e-01
2.39999995e-01,3.23063403e-04,4.69330407e-04,9.48581510e-05,6.53189123e-01
2.80000001e-01,4.32303117e-04,6.25083107e-04,1.37071998e-04,8.15306067e-01
3.19999993e-01,5.38704102e-04,7.75828725e-04,1.89525294e-04,9.83609319e-01
3.60000014e-01,6.58540288e-04,9.44991014e-04,2.92323180e-04,1.15587461e+00
4.00000006e-01,7.58505135e-04,1.08371838e-03,4.00138320e-04,1.36768150e+00
4.39999998e-01,8.43437971e-04,1.20254839e-03,5.92941884e-04,1.61601448e+00
4.79999989e-01,9.11115028e-04,1.29832630e-03,8.12493498e-04,1.91916990e+00
5.19999981e-01,9.78266937e-04,1.39613042e-03,1.12309493e-03,2.29006410e+00
5.60000002e-01,1.04687770e-03,1.49688474e-03,1.39952218e-03,2.74500561e+00
6.00000024e-01,1.13147125e-03,1.62138627e-03,1.86117773e-03,3.35517097e+00
6.41029537e-01,1.21033925e-03,1.73669134e-03,2.21225899e-03,4.15073395e+00
6.83115125e-01,1.27809902e-03,1.83691131e-03,2.58760666e-03,4.76400948e+00
7.26283848e-01,1.34893367e-03,1.94303854e-03,2.94899940e-03,5.94292021e+00
7.70563781e-01,1.41198351e-03,2.03888165e-03,3.24055669e-03,6.66655111e+00
8.15983355e-01,1.47896097e-03,2.14128406e-03,3.52201704e-03,8.32488441e+00
8.62571895e-01,1.56281923e-03,2.26777466e-03,3.89269250e-03,8.93061256e+00
9.10359621e-01,1.64683047e-03,2.39498331e-03,4.47068084e-03,1.06921997e+01
9.59377348e-01,1.76829181e-03,2.57859100e-03,5.62918326e-03,1.19092045e+01
1.00965667e+00,2.01616436e-03,2.95463298e-03,6.80688908e-03,1.36730413e+01
1.06123006e+00,2.48963851e-03,3.64671741e-03,7.63985468e-03,1.54335756e+01
1.11413085e+00,3.05962563e-03,4.46171639e-03,8.24103504e-03,1.75539379e+01
1.16839325e+00,3.82513669e-03,5.54623641e-03,9.06752609e-03,2.02798233e+01
1.22405231e+00,4.55368124e-03,6.56647002e-03,9.95392725e-03,2.26500473e+01
1.28114390e+00,5.45035256e-03,7.81689771e-03,1.12036467e-02,2.42604485e+01
1.33970511e+00,6.63462002e-03,9.47457924e-03,1.38379959e-02,2.58315716e+01
1.39977336e+00,2.01758789e+04,2.82630195e+04,2.00209434e+04,2.14886548e+03
1.46138775e+00,2.57579883e+04,3.60617852e+04,2.42404297e+04,2.05798218e+03
1.52458799e+00,1.56929941e+04,2.19686562e+04,1.48173789e+04,1.38473486e+03
1.58941495e+00,1.47826699e+04,2.07007266e+04,1.42718672e+04,1.53769653e+03
1.65591037e+00,1.45448945e+04,2.03706523e+04,1.41894023e+04,1.63166943e+03
1.72411728e+00,1.45068516e+04,2.03191562e+04,1.42444707e+04,1.70814478e+03
1.79407966e+00,1.45604746e+04,2.03955273e+04,1.43620186e+04,1.77571606e+03
1.86584306e+00,1.46580508e+04,2.05331543e+04,1.45071191e+04,1.83708203e+03
1.93945324e+00,1.48000605e+04,2.07328926e+04,1.46897412e+04,1.89869019e+03
2.01495814e+00,1.50319082e+04,2.10584297e+04,1.49571836e+04,1.96794165e+03
2.09240627e+00,1.54277734e+04,2.16137090e+04,1.53862422e+04,2.05846851e+03
2.17184782e+00,1.60605508e+04,2.25008672e+04,1.60533994e+04,2.18009448e+03
2.25333428e+00,1.67919336e+04,2.35258438e+04,1.68041445e+04,2.29614404e+03
2.33691788e+00,1.72008750e+04,2.40984629e+04,1.72013398e+04,2.34250537e+03
2.42265272e+00,1.70355156e+04,2.38663320e+04,1.70162383e+04,2.30991846e+03
2.51059437e+00,1.64475000e+04,2.30422227e+04,1.64108789e+04,2.21996338e+03
2.60079956e+00,1.55499580e+04,2.17844336e+04,1.54882383e+04,2.08147827e+03
2.69332647e+00,1.47143027e+04,2.06138008e+04,1.46497129e+04,1.97763379e+03
2.78823495e+00,1.47221592e+04,2.06255078e+04,1.46840898e+04,2.01242944e+03
2.88558602e+00,1.54483145e+04,2.16433574e+04,1.54308203e+04,2.13491602e+03
2.98544264e+00,1.62051289e+04,2.27036562e+04,1.61897881e+04,2.24929712e+03
3.08786964e+00,1.69586055e+04,2.37594902e+04,1.69647617e+04,2.38238379e+03
3.19293284e+00,1.75738301e+04,2.46214590e+04,1.75917656e+04,2.48161401e+03
3.30070019e+00,1.73563516e+04,2.43162344e+04,1.73551699e+04,2.45637744e+03
3.41124129e+00,1.65427109e+04,2.31772539e+04,1.65870469e+04,2.41449512e+03
3.52462745e+00,1.62580645e+04,2.27791250e+04,1.63240137e+04,2.39532861e+03
3.64093208e+00,1.52019053e+04,2.12984316e+04,1.52177324e+04,2.22152881e+03
3.76023054e+00,1.44890996e+04,2.03010117e+04,1.45647695e+04,2.18866504e+03
3.88259912e+00,1.62127178e+04,2.27176914e+04,1.63680762e+04,2.49038989e+03
4.00811720e+00,1.91764141e+04,2.68703535e+04,1.93436836e+04,2.88326587e+03
4.13686609e+00,1.99483594e+04,2.79498086e+04,2.00318027e+04,2.90803491e+03
4.26892853e+00,1.96866719e+04,2.75825430e+04,1.97519512e+04,2.87708545e+03
4.40439081e+00,1.98863379e+04,2.78613555e+04,1.99085391e+04,2.88081250e+03
4.54333878e+00,1.89547188e+04,2.65545488e+04,1.89028789e+04,2.69805151e+03
4.68586397e+00,1.65719062e+04,2.32164961e+04,1.65281133e+04,2.39294629e+03
4.83205652e+00,1.57906748e+04,2.21234746e+04,1.57988994e+04,2.35932324e+03
4.98201227e+00,1.61057227e+04,2.25634980e+04,1.60549570e+04,2.33445996e+03
5.13582754e+00,1.48433516e+04,2.07955547e+04,1.48349639e+04,2.24604053e+03
5.29360199e+00,1.52296973e+04,2.13398945e+04,1.53502119e+04,2.43420508e+03
5.45543718e+00,1.78494297e+04,2.50108320e+04,1.79859824e+04,2.76444946e+03
5.62143755e+00,1.87868887e+04,2.63218320e+04,1.88232109e+04,2.84645410e+03
5.79171038e+00,1.75978848e+04,2.46549180e+04,1.76017695e+04,2.65237305e+03
5.96636629e+00,1.70372773e+04,2.38692031e+04,1.70375703e+04,2.60034644e+03
6.14551687e+00,1.64289258e+04,2.30162461e+04,1.64073359e+04,2.50977808e+03
6.32927942e+00,1.54502461e+04,2.16444844e+04,1.54053896e+04,2.32633667e+03
6.51777077e+00,1.45832666e+04,2.04293984e+04,1.45214316e+04,2.18966284e+03
6.71111441e+00,1.39420547e+04,1.95306895e+04,1.38655967e+04,2.07870679e+03
6.90943432e+00,1.32501406e+04,1.85613867e+04,1.31776895e+04,1.99929944e+03
7.11285782e+00,1.27217041e+04,1.78219121e+04,1.26843838e+04,1.95605017e+03
7.32151794e+00,1.28329258e+04,1.79782891e+04,1.28133203e+04,1.97739758e+03
7.53554821e+00,1.28062324e+04,1.79403008e+04,1.27594961e+04,1.95477319e+03
7.75508738e+00,1.22367451e+04,1.71423086e+04,1.21853750e+04,1.88754858e+03
7.98027754e+00,1.20286963e+04,1.68512891e+04,1.19946152e+04,1.88691870e+03
8.21126270e+00,1.20173711e+04,1.68353320e+04,1.19774658e+04,1.88163501e+03
8.44819450e+00,1.17520000e+04,1.64634766e+04,1.17131318e+04,1.85165625e+03
8.69122219e+00,1.17009512e+04,1.63925137e+04,1.16907930e+04,1.87062854e+03
8.94050789e+00,1.19573887e+04,1.67519844e+04,1.19590801e+04,1.92418774e+03
9.19620800e+00,1.20924375e+04,1.69415801e+04,1.21154814e+04,1.96451965e+03
9.45849037e+00,1.27140410e+04,1.78130000e+04,1.27579502e+04,2.06183984e+03
9.72752285e+00,1.32263496e+04,1.85305547e+04,1.32667793e+04,2.13335620e+03
1.00034800e+01,1.31970703e+04,1.84904180e+04,1.32868809e+04,2.17326807e+03
1.02865391e+01,1.47204727e+04,2.06250684e+04,1.48325283e+04,2.38839111e+03
1.05768833e+01,1.50391602e+04,2.10695742e+04,1.50779482e+04,2.38254150e+03
1.08747025e+01,1.32185020e+04,1.85201055e+04,1.33209160e+04,2.22606470e+03
1.11801853e+01,1.47668467e+04,2.06899707e+04,1.49154375e+04,2.46931714e+03
1.14935322e+01,1.54061758e+04,2.15842344e+04,1.55291865e+04,2.50371094e+03
1.18149433e+01,1.55549658e+04,2.17934434e+04,1.57485059e+04,2.55558472e+03
1.21446266e+01,1.65720605e+04,2.32190117e+04,1.68323281e+04,2.73136792e+03
1.24827967e+01,1.65171406e+04,2.31423906e+04,1.68275762e+04,2.74361450e+03
1.28296700e+01,1.45121084e+04,2.03350840e+04,1.49345039e+04,2.50123145e+03
1.31854706e+01,1.27957109e+04,1.79320820e+04,1.33249170e+04,2.23918408e+03
1.35504293e+01,1.17566250e+04,1.64783867e+04,1.23781299e+04,2.08247534e+03
1.39247818e+01,1.07692451e+04,1.50986875e+04,1.15803652e+04,2.01247534e+03
1.43087692e+01,9.70859277e+03,1.36175293e+04,1.08548174e+04,1.97632800e+03
1.47026405e+01,1.07446016e+04,1.50735205e+04,1.22952676e+04,2.17547046e+03
1.51066484e+01,1.18805986e+04,1.66706992e+04,1.38655449e+04,2.37994531e+03
1.55210552e+01,1.32204248e+04,1.85544863e+04,1.56225449e+04,2.61287012e+03
1.59461288e+01,1.50977109e+04,2.11925977e+04,1.79522246e+04,2.86230591e+03
1.63821430e+01,1.83306445e+04,2.57315781e+04,2.14935078e+04,3.23887061e+03
1.68293781e+01,2.41840176e+04,3.39369609e+04,2.74579277e+04,3.79788867e+03
1.72881241e+01,2.93927070e+04,4.12332422e+04,3.24147441e+04,4.05839844e+03
1.77586803e+01,3.00636055e+04,4.21793125e+04,3.25366484e+04,3.93434741e+03
1.82413464e+01,2.93810449e+04,4.12303320e+04,3.11205605e+04,3.73511914e+03
1.87364349e+01,3.10768496e+04,4.35856016e+04,3.12854590e+04,3.74643921e+03
1.92442665e+01,3.20209414e+04,4.48835039e+04,3.10086680e+04,3.43046680e+03
1.97651691e+01,3.05168945e+04,4.27555586e+04,2.81764453e+04,2.65519458e+03
2.02994785e+01,3.00499961e+04,4.20603711e+04,2.56386465e+04,2.38427368e+03
2.08475418e+01,2.88808555e+04,4.03511953e+04,2.34904863e+04,2.48680151e+03
2.14097099e+01,2.74150273e+04,3.82820664e+04,2.25227148e+04,2.59407788e+03
2.19863453e+01,2.70108574e+04,3.77305742e+04,2.30970859e+04,2.69543115e+03
2.25778236e+01,2.45194785e+04,3.42607891e+04,2.14667676e+04,2.67889380e+03
2.31845264e+01,2.43051191e+04,3.39760156e+04,2.17758379e+04,2.86538135e+03
2.38068466e+01,2.46050371e+04,3.44100781e+04,2.25126328e+04,2.81973462e+03
2.44451809e+01,2.63301504e+04,3.68293242e+04,2.42936562e+04,2.76697485e+03
2.50999470e+01,2.60942422e+04,3.64977773e+04,2.38365293e+04,2.42232080e+03
2.57715645e+01,2.10470566e+04,2.94335254e+04,1.88777539e+04,1.60145728e+03
2.64604683e+01,1.43291807e+04,2.00331562e+04,1.25361006e+04,8.72735657e+02
2.71671047e+01,8.14184375e+03,1.13766387e+04,6.80746729e+03,3.45718079e+02
2.78919277e+01,3.75144556e+03,5.23549902e+03,2.86510083e+03,6.28951569e+01
2.86354065e+01,1.03365759e+03,1.43662024e+03,5.77198975e+02,6.01688661e-02
2.93980217e+01,3.07376099e+02,4.24841583e+02,1.09581818e+02,5.20026684e-02
3.01802654e+01,1.76623367e+02,2.43513107e+02,5.34071579e+01,7.10106315e-03
3.09826431e+01,1.09315384e+02,1.50734238e+02,3.43047066e+01,1.76394405e-03
3.18056717e+01,6.79848633e+01,9.36492310e+01,1.84823170e+01,2.93401128e-04
3.26498833e+01,2.21512108e+01,3.03792725e+01,4.38964510e+00,6.30016220e-05
3.35158234e+01,9.87677288e+00,1.35627708e+01,2.34805942e+00,9.30355309e-05
3.44040565e+01,6.18708324e+00,8.49656773e+00,1.36356246e+00,4.09819222e-06
3.53151436e+01,7.49909699e-01,1.01943862e+00,9.93424281e-02,1.31172487e-06
3.62496834e+01,8.32463950e-02,1.12995408e-01,1.02412328e-02,4.42326495e-07
3.72082787e+01,3.90222371e-02,5.31771705e-02,4.03970247e-03,1.62699067e-07
3.81915474e+01,1.14257466e-02,1.55657139e-02,1.19388045e-03,2.56812651e-08
3.92001228e+01,1.09645235e-03,1.46922714e-03,3.55816410e-05,4.28344915e-09
4.02346535e+01,1.07788313e-04,1.42413584e-04,2.52120117e-06,6.82029766e-10
4.12958107e+01,1.28142692e-05,1.69284904e-05,4.23335081e-07,9.08384548e-11
4.23842850e+01,9.73185479e-07,1.29080422e-06,4.87110015e-08,8.31496504e-12
4.35007744e+01,3.45752795e-08,4.61243488e-08,3.53630902e-09,2.50620136e-13
4.46459999e+01,1.17718524e-09,1.58342750e-09,3.04926778e-10,4.74059226e-15
4.58207016e+01,6.19537754e-11,8.35407299e-11,2.87080255e-11,5.44829803e-16
4.70256386e+01,6.05751181e-13,7.86098888e-13,5.49854433e-13,2.30303626e-17
4.82615852e+01,3.06441951e-14,3.90868876e-14,8.01514614e-16,2.61099871e-19
4.95293465e+01,1.67952684e-16,2.12724966e-16,5.41777526e-17,4.56049027e-21
5.08297386e+01,1.09193358e-17,1.15280274e-17,1.96078739e-18,8.79057368e-23
5.21635971e+01,9.58986156e-20,1.90801551e-19,8.24557788e-21,1.70422394e-24
5.35317917e+01,3.51696275e-21,3.29281942e-21,1.65394814e-21,1.72098912e-26
5.49351997e+01,1.21789307e-22,1.92976746e-22,2.35925163e-24,4.11068513e-28
5.63747253e+01,1.68218948e-24,1.33750933e-24,1.08976273e-24,2.97189407e-29
5.78513031e+01,9.01204744e-26,1.67731710e-25,5.96109830e-27,7.95512040e-31
5.93278885e+01,1.46964469e-27,1.13190292e-27,1.01405768e-27,4.75346553e-32
6.08044662e+01,8.65768705e-29,1.42324273e-28,1.89489223e-29,1.60768156e-33
6.22810478e+01,2.04016486e-30,1.41185354e-30,1.64792986e-30,6.49780561e-35
6.37576256e+01,1.34902529e-31,1.99239921e-31,4.28277114e-32,2.78335004e-36
6.52341995e+01,3.98942726e-33,2.69324343e-33,2.67706808e-33,9.98831532e-38
6.67107849e+01,1.95512743e-34,2.59389611e-34,7.91692174e-35,3.73446041e-39
6.81873703e+01,8.34554856e-36,7.48116274e-36,4.98169864e-36,1.23314265e-40
6.96639481e+01,4.19282536e-37,5.70702588e-37,2.00459938e-37,0.00000000e+00
7.11405258e+01,2.51420970e-38,2.98266378e-38,1.23580512e-38,0.00000000e+00
7.26171036e+01,1.38588418e-39,1.86933215e-39,5.77334967e-40,0.00000000e+00
7.40936813e+01,2.52233724e-41,1.54142831e-41,1.40129846e-42,0.00000000e+00
7.55702591e+01,0.00000000e+00,0.00000000e+00,0.00000000e+00,0.00000000e+00
7.70468445e+01,0.00000000e+00,0.00000000e+00,0.00000000e+00,0.00000000e+00
7.85234222e+01,0.00000000e+00,0.00000000e+00,0.00000000e+00,0.00000000e+00
8.00000000e+01,0.00000000e+00,0.00000000e+00,0.00000000e+00,0.00000000e+00
