Height (km), 7_8 um ash conc (g/kg), 15_6 um ash conc (g/kg), 125 um ash conc (g/kg), 1 mm ash conc (g/kg)
0.00000000e+00,0.00000000e+00,0.00000000e+00,0.00000000e+00,0.00000000e+00
3.99999991e-02,6.26011882e-08,9.21189525e-08,3.35531821e-03,1.94066925e+01
7.99999982e-02,4.33029356e-07,6.75905198e-07,1.23226251e-02,1.98635464e+01
1.19999997e-01,2.50987932e-06,4.14456008e-06,2.39984766e-02,2.03403759e+01
1.59999996e-01,6.98536905e-06,1.12710823e-05,3.94877866e-02,2.06143055e+01
2.00000003e-01,1.92242369e-05,2.90820080e-05,5.13052419e-02,2.10444355e+01
2.39999995e-01,3.64937150e-05,5.45886287e-05,6.01556972e-02,2.12391529e+01
2.80000001e-01,5.84277841e-05,8.53859674e-05,6.86794743e-02,2.20404968e+01
3.19999993e-01,9.54238349e-05,1.38157513e-04,7.68392012e-02,2.18662987e+01
3.60000014e-01,1.46618273e-04,2.08315148e-04,8.49929303e-02,2.27541466e+01
4.00000006e-01,2.21411421e-04,3.14612204e-04,9.34877843e-02,2.27156124e+01
4.39999998e-01,3.38681100e-04,4.75235836e-04,1.02598213e-01,2.34590931e+01
4.79999989e-01,4.78375121e-04,6.67560089e-04,1.12213433e-01,2.36830158e+01
5.19999981e-01,6.25802029e-04,8.61744513e-04,1.22015096e-01,2.45083637e+01
5.60000002e-01,7.63420307e-04,1.03993155e-03,1.31794363e-01,2.47012119e+01
6.00000024e-01,9.46980261e-04,1.28074537e-03,1.41369849e-01,2.73245316e+01
6.41029537e-01,1.07949169e-03,1.45208184e-03,1.50172114e-01,2.71517830e+01
6.83115125e-01,1.21700903e-03,1.63726520e-03,1.58729732e-01,2.82363911e+01
7.26283848e-01,1.34854449e-03,1.82609307e-03,1.66130036e-01,2.93840122e+01
7.70563781e-01,1.50349201e-03,2.04953644e-03,1.73506454e-01,2.91961975e+01
8.15983355e-01,1.65199977e-03,2.28779716e-03,1.80981934e-01,3.32784271e+01
8.62571895e-01,1.91401853e-03,2.68590776e-03,1.89499766e-01,3.11563797e+01
9.10359621e-01,2.18248111e-03,3.11251497e-03,1.99037552e-01,3.37769547e+01
9.59377348e-01,2.63684685e-03,3.80869140e-03,2.10660994e-01,3.48241310e+01
1.00965667e+00,3.28528229e-03,4.78317076e-03,2.24224597e-01,3.50397491e+01
1.06123006e+00,4.52973787e-03,6.65538898e-03,2.43684903e-01,3.76217422e+01
1.11413085e+00,6.43687136e-03,9.48013831e-03,2.71831393e-01,3.71876259e+01
1.16839325e+00,9.26597416e-03,1.36424359e-02,3.04516554e-01,4.49464073e+01
1.22405231e+00,1.28395353e-02,1.88358948e-02,3.45727921e-01,4.05174522e+01
1.28114390e+00,1.93674304e-02,2.83744596e-02,3.93540412e-01,4.58464966e+01
1.33970511e+00,3.06891538e-02,4.52312604e-02,4.68330324e-01,4.80651169e+01
1.39977336e+00,2.04546621e+04,2.86356992e+04,1.90946953e+04,1.18451086e+03
1.46138775e+00,2.38565000e+04,3.33617461e+04,2.02107051e+04,1.21147400e+03
1.52458799e+00,1.40718496e+04,1.96754141e+04,1.20067119e+04,8.28330994e+02
1.58941495e+00,1.31772930e+04,1.84358789e+04,1.17645742e+04,1.01713287e+03
1.65591037e+00,1.35889492e+04,1.90181875e+04,1.24267646e+04,1.16898352e+03
1.72411728e+00,1.42277979e+04,1.99152656e+04,1.31501270e+04,1.27805896e+03
1.79407966e+00,1.43951582e+04,2.01494648e+04,1.32963984e+04,1.27453418e+03
1.86584306e+00,1.37296465e+04,1.92165234e+04,1.26097832e+04,1.19679333e+03
1.93945324e+00,1.24789141e+04,1.74648770e+04,1.14005215e+04,1.07228186e+03
2.01495814e+00,1.11561377e+04,1.56132812e+04,1.01633408e+04,9.76265137e+02
2.09240627e+00,1.01470469e+04,1.42018262e+04,9.26870215e+03,9.19065857e+02
2.17184782e+00,9.71228809e+03,1.35952480e+04,8.95304980e+03,9.52982239e+02
2.25333428e+00,9.93469238e+03,1.39090127e+04,9.27231836e+03,1.04714124e+03
2.33691788e+00,1.06217344e+04,1.48733730e+04,1.00415830e+04,1.19957385e+03
2.42265272e+00,1.16861865e+04,1.63663027e+04,1.11845244e+04,1.40140955e+03
2.51059437e+00,1.30981523e+04,1.83456309e+04,1.26644082e+04,1.63825000e+03
2.60079956e+00,1.43586387e+04,2.01121523e+04,1.39750605e+04,1.84118701e+03
2.69332647e+00,1.51064502e+04,2.11600059e+04,1.47570254e+04,1.96546240e+03
2.78823495e+00,1.54337500e+04,2.16186934e+04,1.51163730e+04,2.02397388e+03
2.88558602e+00,1.54897451e+04,2.16970996e+04,1.51867979e+04,2.02511414e+03
2.98544264e+00,1.52876270e+04,2.14134395e+04,1.49645723e+04,1.96073804e+03
3.08786964e+00,1.49936982e+04,2.10007090e+04,1.46158818e+04,1.87345251e+03
3.19293284e+00,1.48033145e+04,2.07330625e+04,1.43663008e+04,1.79974402e+03
3.30070019e+00,1.48469053e+04,2.07934688e+04,1.43566582e+04,1.77112695e+03
3.41124129e+00,1.52502656e+04,2.13576719e+04,1.46906338e+04,1.77948523e+03
3.52462745e+00,1.57782266e+04,2.20960625e+04,1.51319609e+04,1.80364172e+03
3.64093208e+00,1.58468779e+04,2.21906992e+04,1.51160732e+04,1.77575757e+03
3.76023054e+00,1.54947695e+04,2.16965000e+04,1.47225000e+04,1.72741333e+03
3.88259912e+00,1.48168223e+04,2.07464688e+04,1.40325801e+04,1.63886365e+03
4.00811720e+00,1.38727383e+04,1.94240215e+04,1.30976367e+04,1.53411890e+03
4.13686609e+00,1.28065742e+04,1.79309473e+04,1.20631152e+04,1.41944897e+03
4.26892853e+00,1.18005176e+04,1.65226426e+04,1.11198115e+04,1.33389807e+03
4.40439081e+00,1.12861973e+04,1.58034268e+04,1.06734971e+04,1.31344775e+03
4.54333878e+00,1.12671318e+04,1.57773770e+04,1.06877910e+04,1.33750012e+03
4.68586397e+00,1.13558008e+04,1.59022246e+04,1.08122490e+04,1.38612634e+03
4.83205652e+00,1.20210049e+04,1.68359121e+04,1.15539160e+04,1.53296985e+03
4.98201227e+00,1.33739707e+04,1.87321875e+04,1.29278633e+04,1.73028845e+03
5.13582754e+00,1.37061572e+04,1.91967695e+04,1.32388125e+04,1.77671631e+03
5.29360199e+00,1.35282432e+04,1.89475840e+04,1.30916201e+04,1.78315894e+03
5.45543718e+00,1.34956270e+04,1.89019941e+04,1.30820781e+04,1.80327832e+03
5.62143755e+00,1.29169365e+04,1.80914766e+04,1.25338076e+04,1.73830371e+03
5.79171038e+00,1.20390986e+04,1.68621484e+04,1.16995820e+04,1.64084949e+03
5.96636629e+00,1.19205674e+04,1.66963906e+04,1.16008857e+04,1.62742761e+03
6.14551687e+00,1.21809814e+04,1.70604629e+04,1.18298945e+04,1.64554114e+03
6.32927942e+00,1.22496533e+04,1.71566875e+04,1.19075801e+04,1.66756946e+03
6.51777077e+00,1.36456455e+04,1.91122285e+04,1.32700029e+04,1.83133447e+03
6.71111441e+00,1.47082812e+04,2.05988965e+04,1.42278223e+04,1.91200415e+03
6.90943432e+00,1.46332266e+04,2.04929160e+04,1.41328975e+04,1.89398157e+03
7.11285782e+00,1.49851162e+04,2.09831523e+04,1.43756182e+04,1.87526587e+03
7.32151794e+00,1.32841670e+04,1.85987949e+04,1.26663965e+04,1.64072888e+03
7.53554821e+00,1.03507451e+04,1.44911250e+04,9.90528418e+03,1.33257739e+03
7.75508738e+00,8.48431836e+03,1.18790664e+04,8.24151660e+03,1.17230273e+03
7.98027754e+00,7.75706299e+03,1.08623232e+04,7.68220312e+03,1.13744482e+03
8.21126270e+00,7.67658936e+03,1.07518232e+04,7.77466455e+03,1.17815686e+03
8.44819450e+00,8.29780664e+03,1.16229814e+04,8.49991895e+03,1.26643274e+03
8.69122219e+00,8.72502051e+03,1.22218203e+04,9.04474023e+03,1.32637134e+03
8.94050789e+00,9.34763965e+03,1.30949717e+04,9.85532324e+03,1.40694458e+03
9.19620800e+00,9.93750684e+03,1.39227744e+04,1.06633330e+04,1.45877600e+03
9.45849037e+00,1.01176064e+04,1.41783623e+04,1.11043984e+04,1.49625574e+03
9.72752285e+00,1.05358535e+04,1.47680742e+04,1.17279277e+04,1.54937756e+03
1.00034800e+01,9.64700977e+03,1.35302744e+04,1.10736689e+04,1.44330347e+03
1.02865391e+01,8.45442773e+03,1.18646768e+04,1.00270596e+04,1.31294385e+03
1.05768833e+01,9.09330176e+03,1.27602139e+04,1.07647070e+04,1.34549902e+03
1.08747025e+01,9.74853809e+03,1.36768838e+04,1.14857227e+04,1.37042358e+03
1.11801853e+01,1.12175586e+04,1.57357324e+04,1.29995254e+04,1.48151831e+03
1.14935322e+01,1.35665176e+04,1.90265488e+04,1.53309082e+04,1.66745105e+03
1.18149433e+01,1.39129297e+04,1.95190000e+04,1.59013115e+04,1.73236133e+03
1.21446266e+01,1.26733574e+04,1.77987891e+04,1.50488457e+04,1.67360852e+03
1.24827967e+01,1.33430791e+04,1.87564395e+04,1.58836660e+04,1.79941064e+03
1.28296700e+01,1.58926904e+04,2.23545293e+04,1.86214805e+04,2.13144995e+03
1.31854706e+01,1.96270293e+04,2.75978652e+04,2.21486836e+04,2.38612891e+03
1.35504293e+01,2.26768730e+04,3.18445293e+04,2.41938066e+04,2.47024829e+03
1.39247818e+01,2.12791250e+04,2.98661387e+04,2.23172305e+04,2.31346802e+03
1.43087692e+01,1.88548340e+04,2.64811094e+04,1.94711270e+04,1.96196448e+03
1.47026405e+01,1.72849863e+04,2.43066660e+04,1.72662422e+04,1.62952905e+03
1.51066484e+01,1.61528652e+04,2.27249082e+04,1.52402451e+04,1.30109827e+03
1.55210552e+01,1.66477188e+04,2.33738301e+04,1.41522285e+04,1.15947607e+03
1.59461288e+01,1.83681934e+04,2.57195781e+04,1.44507676e+04,1.30388428e+03
1.63821430e+01,1.95283027e+04,2.73116367e+04,1.53236621e+04,1.52126978e+03
1.68293781e+01,1.97580195e+04,2.76187871e+04,1.59290312e+04,1.61497437e+03
1.72881241e+01,2.34218828e+04,3.27203438e+04,1.86319648e+04,1.78584131e+03
1.77586803e+01,2.54242363e+04,3.54783516e+04,1.98117168e+04,1.92987463e+03
1.82413464e+01,2.43829473e+04,3.39903594e+04,1.90895391e+04,1.81141870e+03
1.87364349e+01,2.39656777e+04,3.33856250e+04,1.89943301e+04,1.79217627e+03
1.92442665e+01,2.37881230e+04,3.31391211e+04,1.91204707e+04,1.72027686e+03
1.97651691e+01,2.14703184e+04,2.99159160e+04,1.69467676e+04,1.45013989e+03
2.02994785e+01,2.23943086e+04,3.12204609e+04,1.72342344e+04,1.33724731e+03
2.08475418e+01,2.47206191e+04,3.44656133e+04,1.88627266e+04,1.40198975e+03
2.14097099e+01,2.17954551e+04,3.04018086e+04,1.77801211e+04,1.47491675e+03
2.19863453e+01,2.20137461e+04,3.07163809e+04,1.77023809e+04,1.21695056e+03
2.25778236e+01,1.15198564e+04,1.60437461e+04,8.15609521e+03,3.78061829e+02
2.31845264e+01,3.95541846e+03,5.48058008e+03,1.99211499e+03,3.50147896e+01
2.38068466e+01,1.52110229e+03,2.09090186e+03,4.57391541e+02,9.53677952e-01
2.44451809e+01,8.16402100e+02,1.11627722e+03,1.78933716e+02,7.78064802e-02
2.50999470e+01,4.64824188e+02,6.34193298e+02,9.57642822e+01,5.09545244e-02
2.57715645e+01,3.09869141e+02,4.22233582e+02,5.26920013e+01,1.75150521e-02
2.64604683e+01,2.20644409e+02,2.99799500e+02,2.92176723e+01,9.65797866e-04
2.71671047e+01,1.21115692e+02,1.63798889e+02,1.21941004e+01,3.05647939e-03
2.78919277e+01,6.61900177e+01,8.93784637e+01,5.27382421e+00,3.46770830e-05
2.86354065e+01,4.20782928e+01,5.68691788e+01,3.10690403e+00,1.05183872e-05
2.93980217e+01,2.27227364e+01,3.06374264e+01,1.39774513e+00,8.89118928e-06
3.01802654e+01,8.31525230e+00,1.11434250e+01,3.61700803e-01,7.13372128e-06
3.09826431e+01,1.83948302e+00,2.43384385e+00,3.67267728e-02,2.70014993e-06
3.18056717e+01,1.35093704e-01,1.69282511e-01,9.99130934e-05,2.54785306e-07
3.26498833e+01,2.01079194e-02,2.42291372e-02,1.18707285e-05,2.90774391e-08
3.35158234e+01,3.80521757e-03,4.55607520e-03,3.07967139e-06,4.21873381e-09
3.44040565e+01,5.46883268e-04,6.54031814e-04,8.63442267e-07,6.44706788e-10
3.53151436e+01,3.90851928e-05,4.42224336e-05,1.41610442e-07,7.36240582e-11
3.62496834e+01,3.76574963e-06,4.42516966e-06,2.53574584e-08,1.03499015e-11
3.72082787e+01,4.84854411e-07,5.98409656e-07,3.81045551e-09,1.58684242e-12
3.81915474e+01,4.54460576e-08,5.61084406e-08,4.21106983e-10,1.62818381e-13
3.92001228e+01,4.28107461e-09,5.36301092e-09,4.19009653e-11,1.74190411e-14
4.02346535e+01,4.02038514e-10,4.99404296e-10,2.91007149e-12,1.36959881e-15
4.12958107e+01,2.49137291e-11,2.99892680e-11,1.38241496e-13,8.60919788e-17
4.23842850e+01,1.57602707e-12,1.84494455e-12,6.31211705e-15,9.01416929e-18
4.35007744e+01,7.26357586e-14,8.60991237e-14,2.52945770e-16,4.14876339e-19
4.46459999e+01,2.40732142e-15,3.02175002e-15,9.38628145e-18,1.55767722e-20
4.58207016e+01,7.76658538e-17,9.80421578e-17,2.63322893e-19,4.81965488e-22
4.70256386e+01,2.66195717e-18,3.37828565e-18,8.95457344e-21,1.49974370e-23
4.82615852e+01,7.99756409e-20,1.00313337e-19,2.60859590e-22,4.07762054e-25
4.95293465e+01,2.42736938e-21,3.04466948e-21,8.32942216e-24,1.15836035e-26
5.08297386e+01,5.82718866e-23,7.25798355e-23,2.60971532e-25,2.85437599e-28
5.21635971e+01,1.17596087e-24,1.44879808e-24,8.46637417e-27,5.68210986e-30
5.35317917e+01,1.91414372e-26,2.32995677e-26,1.79593461e-28,8.44263318e-32
5.49351997e+01,2.57292300e-28,3.10844708e-28,2.99119377e-30,9.88448863e-34
5.63747253e+01,2.89179961e-30,3.46868672e-30,3.57882870e-32,8.64204305e-36
5.78513031e+01,3.01032113e-32,3.64318231e-32,3.58257250e-34,6.53719747e-38
5.93278885e+01,7.08761977e-34,8.45595627e-34,1.16705302e-35,6.45998592e-40
6.08044662e+01,1.07555538e-35,1.31707269e-35,1.80023412e-37,0.00000000e+00
6.22810478e+01,5.95537767e-37,7.21259485e-37,8.73008943e-39,0.00000000e+00
6.37576256e+01,8.70206346e-39,1.08138202e-38,9.24856986e-41,0.00000000e+00
6.52341995e+01,4.38606419e-40,5.31092118e-40,0.00000000e+00,0.00000000e+00
6.67107849e+01,0.00000000e+00,0.00000000e+00,0.00000000e+00,0.00000000e+00
6.81873703e+01,0.00000000e+00,0.00000000e+00,0.00000000e+00,0.00000000e+00
6.96639481e+01,0.00000000e+00,0.00000000e+00,0.00000000e+00,0.00000000e+00
7.11405258e+01,0.00000000e+00,0.00000000e+00,0.00000000e+00,0.00000000e+00
7.26171036e+01,0.00000000e+00,0.00000000e+00,0.00000000e+00,0.00000000e+00
7.40936813e+01,0.00000000e+00,0.00000000e+00,0.00000000e+00,0.00000000e+00
7.55702591e+01,0.00000000e+00,0.00000000e+00,0.00000000e+00,0.00000000e+00
7.70468445e+01,0.00000000e+00,0.00000000e+00,0.00000000e+00,0.00000000e+00
7.85234222e+01,0.00000000e+00,0.00000000e+00,0.00000000e+00,0.00000000e+00
8.00000000e+01,0.00000000e+00,0.00000000e+00,0.00000000e+00,0.00000000e+00
