Height (km), 7_8 um ash conc (g/kg), 15_6 um ash conc (g/kg), 125 um ash conc (g/kg), 1 mm ash conc (g/kg)
0.00000000e+00,0.00000000e+00,0.00000000e+00,0.00000000e+00,0.00000000e+00
3.99999991e-02,5.73781435e-04,9.32765426e-04,1.76496372e-01,1.24390358e+02
7.99999982e-02,1.91647431e-03,3.00552114e-03,2.15464860e-01,1.26611641e+02
1.19999997e-01,4.72744927e-03,7.14720367e-03,2.54538924e-01,1.27214882e+02
1.59999996e-01,8.15220550e-03,1.22011174e-02,2.96092480e-01,1.30935699e+02
2.00000003e-01,1.17409229e-02,1.74181983e-02,3.31015646e-01,1.34687378e+02
2.39999995e-01,1.51035758e-02,2.23332793e-02,3.61909777e-01,1.33969055e+02
2.80000001e-01,1.84237733e-02,2.72108000e-02,3.95776004e-01,1.46078568e+02
3.19999993e-01,2.22585145e-02,3.29136103e-02,4.22743201e-01,1.51253510e+02
3.60000014e-01,2.58856025e-02,3.82678956e-02,4.47940409e-01,1.52533646e+02
4.00000006e-01,2.92395540e-02,4.32797223e-02,4.81877655e-01,1.60602600e+02
4.39999998e-01,3.15982439e-02,4.67041656e-02,6.67397678e-01,1.76413635e+02
4.79999989e-01,3.41843590e-02,5.04335649e-02,5.49527407e-01,1.98713440e+02
5.19999981e-01,3.64582501e-02,5.37882410e-02,6.37770116e-01,2.00007263e+02
5.60000002e-01,3.88836265e-02,5.73691949e-02,6.84515893e-01,2.15169937e+02
6.00000024e-01,4.13849317e-02,6.10673130e-02,8.27188075e-01,2.15370483e+02
6.41029537e-01,4.35138047e-02,6.42377138e-02,7.69493520e-01,1.97748215e+02
6.83115125e-01,4.66524065e-02,6.90099075e-02,8.76896381e-01,1.95854645e+02
7.26283848e-01,5.19196726e-02,7.70015791e-02,9.50843155e-01,1.86786026e+02
7.70563781e-01,5.81631362e-02,8.63489211e-02,1.08388948e+00,1.84745438e+02
8.15983355e-01,6.58908933e-02,9.78209898e-02,1.23100865e+00,1.74647186e+02
8.62571895e-01,7.20238462e-02,1.06879063e-01,1.40182137e+00,1.72897339e+02
9.10359621e-01,7.90173411e-02,1.17427595e-01,1.61524701e+00,1.75185226e+02
9.59377348e-01,8.82697850e-02,1.31610483e-01,1.85542941e+00,1.83761658e+02
1.00965667e+00,1.02478884e-01,1.53410882e-01,2.15702653e+00,1.80537277e+02
1.06123006e+00,1.21557802e-01,1.82604641e-01,2.48632884e+00,1.68058929e+02
1.11413085e+00,1.45034462e-01,2.18294948e-01,2.83322144e+00,1.87350769e+02
1.16839325e+00,1.71428889e-01,2.57850915e-01,3.23091555e+00,1.77387512e+02
1.22405231e+00,1.99823216e-01,3.00412625e-01,3.66378713e+00,1.75716843e+02
1.28114390e+00,2.36195654e-01,3.55222404e-01,4.15678692e+00,1.71181885e+02
1.33970511e+00,2.79275924e-01,4.20444131e-01,4.66077471e+00,1.75532654e+02
1.39977336e+00,1.98847852e+04,2.78369004e+04,1.85187383e+04,1.19672620e+03
1.46138775e+00,2.21425039e+04,3.09667285e+04,1.89364941e+04,1.28688306e+03
1.52458799e+00,1.49097686e+04,2.08497109e+04,1.28027578e+04,1.01973126e+03
1.58941495e+00,1.38603984e+04,1.93917520e+04,1.23521689e+04,1.15427368e+03
1.65591037e+00,1.39513232e+04,1.95241875e+04,1.26810400e+04,1.28490051e+03
1.72411728e+00,1.42360977e+04,1.99252871e+04,1.30603184e+04,1.35785144e+03
1.79407966e+00,1.43244854e+04,2.00498652e+04,1.31825732e+04,1.41303613e+03
1.86584306e+00,1.40892441e+04,1.97207500e+04,1.29718008e+04,1.39945862e+03
1.93945324e+00,1.34525361e+04,1.88292891e+04,1.23691738e+04,1.36343445e+03
2.01495814e+00,1.23590195e+04,1.72985449e+04,1.13553887e+04,1.26078003e+03
2.09240627e+00,1.13164697e+04,1.58405381e+04,1.04414844e+04,1.21483875e+03
2.17184782e+00,1.10636318e+04,1.54887773e+04,1.02870596e+04,1.24680408e+03
2.25333428e+00,1.15961221e+04,1.62369316e+04,1.09009473e+04,1.35892725e+03
2.33691788e+00,1.27505488e+04,1.78553691e+04,1.20818896e+04,1.52200977e+03
2.42265272e+00,1.40856602e+04,1.97246621e+04,1.33711494e+04,1.68862256e+03
2.51059437e+00,1.57748223e+04,2.20911738e+04,1.50854824e+04,1.93645728e+03
2.60079956e+00,1.85333145e+04,2.59536426e+04,1.77207363e+04,2.23379663e+03
2.69332647e+00,1.92961719e+04,2.70189629e+04,1.83265566e+04,2.24597314e+03
2.78823495e+00,1.63338105e+04,2.28701523e+04,1.54732207e+04,1.88015723e+03
2.88558602e+00,1.22973457e+04,1.72171309e+04,1.15891943e+04,1.42572144e+03
2.98544264e+00,9.45344043e+03,1.32398330e+04,9.06342090e+03,1.23226135e+03
3.08786964e+00,1.11652246e+04,1.56410986e+04,1.08048525e+04,1.43266541e+03
3.19293284e+00,1.40199951e+04,1.96363828e+04,1.34044629e+04,1.66058508e+03
3.30070019e+00,1.53401406e+04,2.14812930e+04,1.45475898e+04,1.80569971e+03
3.41124129e+00,1.58062402e+04,2.21341777e+04,1.50555000e+04,1.97944824e+03
3.52462745e+00,1.73032617e+04,2.42330781e+04,1.65776953e+04,2.20075513e+03
3.64093208e+00,1.77533203e+04,2.48575273e+04,1.67893770e+04,2.09331055e+03
3.76023054e+00,1.29695205e+04,1.81558281e+04,1.21858350e+04,1.52254285e+03
3.88259912e+00,8.36477148e+03,1.17129951e+04,7.99181689e+03,1.09999780e+03
4.00811720e+00,7.86550049e+03,1.10158838e+04,7.57392188e+03,1.05945593e+03
4.13686609e+00,1.01749131e+04,1.42463477e+04,9.64596582e+03,1.24459961e+03
4.26892853e+00,1.17774844e+04,1.64852910e+04,1.10085996e+04,1.35627722e+03
4.40439081e+00,1.13669189e+04,1.59103086e+04,1.06500303e+04,1.35671167e+03
4.54333878e+00,9.56027539e+03,1.33844883e+04,9.10659375e+03,1.24257483e+03
4.68586397e+00,7.31375879e+03,1.02433945e+04,7.15065137e+03,1.06531030e+03
4.83205652e+00,6.20504248e+03,8.69177344e+03,6.15357031e+03,9.53456909e+02
4.98201227e+00,6.87252051e+03,9.62321191e+03,6.72020508e+03,9.91361267e+02
5.13582754e+00,8.39554688e+03,1.17528193e+04,8.09898730e+03,1.11948047e+03
5.29360199e+00,9.37507422e+03,1.31242910e+04,9.04673047e+03,1.22102893e+03
5.45543718e+00,9.26776660e+03,1.29756533e+04,9.02284570e+03,1.20623474e+03
5.62143755e+00,8.77644629e+03,1.22888018e+04,8.62466406e+03,1.15070154e+03
5.79171038e+00,7.87920752e+03,1.10315000e+04,7.79441602e+03,1.02015393e+03
5.96636629e+00,5.45792188e+03,7.64139551e+03,5.59561377e+03,7.70851624e+02
6.14551687e+00,2.97420557e+03,4.16842334e+03,3.48533862e+03,5.66973145e+02
6.32927942e+00,2.06195972e+03,2.89504736e+03,2.82077148e+03,5.10193115e+02
6.51777077e+00,2.09131274e+03,2.93800610e+03,3.00848047e+03,5.35465454e+02
6.71111441e+00,2.45600171e+03,3.45058472e+03,3.55417993e+03,5.97864319e+02
6.90943432e+00,2.96812500e+03,4.16909912e+03,4.30690332e+03,6.71856934e+02
7.11285782e+00,3.53561206e+03,4.96719043e+03,5.25082861e+03,7.32599487e+02
7.32151794e+00,4.16429883e+03,5.85335547e+03,6.30658301e+03,7.95870605e+02
7.53554821e+00,4.90712207e+03,6.90066064e+03,7.49390967e+03,8.36398010e+02
7.75508738e+00,5.52683203e+03,7.77445020e+03,8.48355469e+03,8.27880371e+02
7.98027754e+00,5.41696826e+03,7.62563672e+03,8.76529102e+03,7.53944092e+02
8.21126270e+00,4.88293408e+03,6.88619922e+03,8.63622852e+03,6.68055237e+02
8.44819450e+00,4.67987256e+03,6.60965625e+03,8.58746191e+03,6.15662415e+02
8.69122219e+00,5.02956689e+03,7.10642822e+03,8.74447266e+03,6.25409302e+02
8.94050789e+00,5.62508203e+03,7.94978369e+03,8.86302344e+03,6.60543030e+02
9.19620800e+00,6.06516260e+03,8.58464355e+03,8.71734180e+03,6.86256592e+02
9.45849037e+00,6.44389062e+03,9.14616309e+03,8.45372656e+03,7.05704590e+02
9.72752285e+00,6.97835010e+03,9.92675879e+03,8.23281738e+03,6.99637756e+02
1.00034800e+01,7.69812061e+03,1.09562949e+04,8.02410645e+03,6.45289856e+02
1.02865391e+01,8.29445898e+03,1.17679531e+04,7.52848145e+03,5.62621277e+02
1.05768833e+01,8.45689160e+03,1.19427520e+04,6.71403955e+03,4.77151520e+02
1.08747025e+01,8.45268164e+03,1.18988848e+04,5.96241699e+03,4.16042938e+02
1.11801853e+01,8.91860938e+03,1.25176172e+04,5.58829688e+03,3.97392059e+02
1.14935322e+01,9.71587793e+03,1.35925693e+04,5.60088477e+03,4.02872314e+02
1.18149433e+01,9.98678125e+03,1.39317402e+04,5.57000146e+03,3.88823547e+02
1.21446266e+01,9.78020215e+03,1.36092715e+04,5.24902979e+03,3.60487976e+02
1.24827967e+01,9.22969336e+03,1.28081191e+04,4.76672168e+03,3.40270752e+02
1.28296700e+01,8.46865918e+03,1.17371738e+04,4.29962012e+03,3.17254791e+02
1.31854706e+01,7.83571875e+03,1.08437949e+04,3.97580688e+03,2.88290039e+02
1.35504293e+01,7.22193213e+03,9.96862695e+03,3.71203418e+03,2.57386078e+02
1.39247818e+01,6.63550586e+03,9.13704688e+03,3.47162305e+03,2.36224686e+02
1.43087692e+01,6.21910205e+03,8.54495703e+03,3.54882153e+03,2.38947601e+02
1.47026405e+01,5.87217773e+03,8.07881348e+03,3.73516113e+03,2.13812347e+02
1.51066484e+01,4.78072803e+03,6.58510547e+03,2.97677075e+03,1.14837517e+02
1.55210552e+01,3.33744092e+03,4.59374365e+03,1.87491321e+03,4.03733978e+01
1.59461288e+01,2.19186865e+03,3.01130249e+03,1.02975830e+03,1.19405422e+01
1.63821430e+01,1.23115198e+03,1.68510535e+03,4.48711884e+02,4.38876820e+00
1.68293781e+01,6.03809509e+02,8.21938599e+02,1.51959030e+02,4.08203691e-01
1.72881241e+01,3.09773193e+02,4.19008606e+02,4.73154411e+01,1.94297396e-02
1.77586803e+01,2.10437973e+02,2.84001434e+02,2.61989975e+01,7.48234894e-03
1.82413464e+01,1.57338516e+02,2.11962753e+02,1.71251392e+01,1.40932051e-03
1.87364349e+01,1.10237122e+02,1.48098358e+02,1.10774527e+01,5.95389982e-04
1.92442665e+01,7.54631958e+01,1.01343567e+02,8.76044083e+00,1.96267560e-04
1.97651691e+01,5.30388680e+01,7.13372650e+01,6.44202900e+00,3.96225223e-05
2.02994785e+01,3.47636833e+01,4.67611237e+01,3.48418999e+00,1.32066916e-05
2.08475418e+01,1.73331318e+01,2.32172375e+01,1.20489025e+00,7.11900066e-06
2.14097099e+01,6.73017168e+00,8.95014858e+00,3.28347504e-01,3.60949866e-06
2.19863453e+01,2.43171263e+00,3.21298623e+00,6.92076683e-02,1.51322865e-06
2.25778236e+01,7.62397170e-01,9.97661412e-01,1.57635063e-02,5.05631078e-07
2.31845264e+01,2.22182184e-01,2.88109094e-01,2.16045184e-03,1.48695435e-07
2.38068466e+01,7.38243386e-02,9.60915908e-02,2.57846899e-04,4.57031213e-08
2.44451809e+01,1.90255158e-02,2.45651137e-02,2.77762701e-05,1.14599708e-08
2.50999470e+01,4.61403606e-03,5.92066906e-03,6.57831606e-06,3.07135828e-09
2.57715645e+01,9.40006052e-04,1.19512540e-03,1.91820550e-06,7.07718828e-10
2.64604683e+01,1.52627312e-04,1.90852545e-04,4.20470684e-07,1.28917030e-10
2.71671047e+01,2.07763442e-05,2.55772211e-05,7.41836317e-08,1.74498888e-11
2.78919277e+01,2.52872974e-06,3.08067706e-06,1.13261951e-08,1.50140404e-12
2.86354065e+01,3.66204290e-07,4.53056259e-07,1.69589209e-09,1.45178723e-13
2.93980217e+01,5.70651935e-08,7.08476691e-08,2.47553950e-10,2.47908824e-14
3.01802654e+01,7.21440330e-09,8.99948382e-09,2.95144915e-11,5.22952382e-15
3.09826431e+01,6.76625367e-10,8.43404346e-10,2.51803613e-12,8.66195321e-16
3.18056717e+01,5.70069547e-11,7.36238639e-11,1.61807376e-13,1.03036284e-16
3.26498833e+01,4.30871007e-12,6.16936276e-12,9.98143286e-15,7.90489445e-18
3.35158234e+01,2.45648554e-13,3.58613611e-13,4.65061746e-16,3.80355663e-19
3.44040565e+01,2.16756002e-14,2.96966092e-14,2.99445635e-17,5.75304310e-20
3.53151436e+01,2.00129914e-15,2.78622382e-15,2.97883620e-18,7.84024887e-21
3.62496834e+01,1.90612059e-16,2.71402274e-16,1.57426378e-19,2.48457813e-22
3.72082787e+01,1.78335260e-17,2.78909288e-17,4.83506051e-21,6.97749048e-24
3.81915474e+01,1.08962444e-18,1.73022909e-18,1.29334414e-22,2.11253672e-25
3.92001228e+01,2.65489175e-20,3.94601309e-20,3.88417242e-24,1.87341638e-27
4.02346535e+01,5.44933754e-23,1.93891787e-22,2.41011206e-25,7.99205617e-29
4.12958107e+01,1.80527327e-24,1.66586581e-23,1.71839682e-26,1.13331799e-29
4.23842850e+01,1.23490579e-25,1.42423610e-24,9.85222559e-28,5.97510220e-31
4.35007744e+01,9.64983193e-27,8.51080029e-26,7.07387749e-29,1.20233067e-32
4.46459999e+01,8.49735314e-28,3.41852912e-27,4.16776017e-30,4.27662661e-34
4.58207016e+01,6.57042797e-29,9.69361467e-29,1.22453762e-31,1.14689276e-35
4.70256386e+01,4.09830444e-30,3.09163403e-30,1.07064071e-33,9.89610988e-38
4.82615852e+01,1.59140282e-31,1.05686640e-31,8.38586058e-37,4.66632389e-40
4.95293465e+01,3.05330929e-33,1.92785831e-33,3.13610596e-38,7.00649232e-42
5.08297386e+01,1.75680084e-35,1.08564121e-35,8.98232316e-40,0.00000000e+00
5.21635971e+01,2.85444497e-39,2.44946972e-39,1.26116862e-41,0.00000000e+00
5.35317917e+01,1.40129846e-42,7.00649232e-42,0.00000000e+00,0.00000000e+00
5.49351997e+01,0.00000000e+00,0.00000000e+00,0.00000000e+00,0.00000000e+00
5.63747253e+01,0.00000000e+00,0.00000000e+00,0.00000000e+00,0.00000000e+00
5.78513031e+01,0.00000000e+00,0.00000000e+00,0.00000000e+00,0.00000000e+00
5.93278885e+01,0.00000000e+00,0.00000000e+00,0.00000000e+00,0.00000000e+00
6.08044662e+01,0.00000000e+00,0.00000000e+00,0.00000000e+00,0.00000000e+00
6.22810478e+01,0.00000000e+00,0.00000000e+00,0.00000000e+00,0.00000000e+00
6.37576256e+01,0.00000000e+00,0.00000000e+00,0.00000000e+00,0.00000000e+00
6.52341995e+01,0.00000000e+00,0.00000000e+00,0.00000000e+00,0.00000000e+00
6.67107849e+01,0.00000000e+00,0.00000000e+00,0.00000000e+00,0.00000000e+00
6.81873703e+01,0.00000000e+00,0.00000000e+00,0.00000000e+00,0.00000000e+00
6.96639481e+01,0.00000000e+00,0.00000000e+00,0.00000000e+00,0.00000000e+00
7.11405258e+01,0.00000000e+00,0.00000000e+00,0.00000000e+00,0.00000000e+00
7.26171036e+01,0.00000000e+00,0.00000000e+00,0.00000000e+00,0.00000000e+00
7.40936813e+01,0.00000000e+00,0.00000000e+00,0.00000000e+00,0.00000000e+00
7.55702591e+01,0.00000000e+00,0.00000000e+00,0.00000000e+00,0.00000000e+00
7.70468445e+01,0.00000000e+00,0.00000000e+00,0.00000000e+00,0.00000000e+00
7.85234222e+01,0.00000000e+00,0.00000000e+00,0.00000000e+00,0.00000000e+00
8.00000000e+01,0.00000000e+00,0.00000000e+00,0.00000000e+00,0.00000000e+00
