Height (km), 7_8 um ash conc (g/kg), 15_6 um ash conc (g/kg), 125 um ash conc (g/kg), 1 mm ash conc (g/kg)
0.00000000e+00,0.00000000e+00,0.00000000e+00,0.00000000e+00,0.00000000e+00
3.99999991e-02,5.49823381e-12,1.26557228e-11,2.35622361e-01,6.08527088e+00
7.99999982e-02,9.92244134e-11,2.36288017e-10,3.47306520e-01,6.19819164e+00
1.19999997e-01,5.43955991e-10,1.37910683e-09,4.13814396e-01,6.28405190e+00
1.59999996e-01,2.06035011e-09,5.74396664e-09,4.44365740e-01,6.29749203e+00
2.00000003e-01,6.34824016e-09,1.79940383e-08,4.38199461e-01,6.35632944e+00
2.39999995e-01,1.53909969e-08,4.51313973e-08,4.92209971e-01,6.48958349e+00
2.80000001e-01,2.88402724e-08,8.78684574e-08,4.88033473e-01,6.45688725e+00
3.19999993e-01,5.38182263e-08,1.64203996e-07,5.66906214e-01,6.74704170e+00
3.60000014e-01,1.14122308e-07,3.39736658e-07,6.12117410e-01,6.64608288e+00
4.00000006e-01,3.15135765e-07,9.12994153e-07,5.63590765e-01,6.73608637e+00
4.39999998e-01,6.97582323e-07,2.04161415e-06,5.48817694e-01,6.81672859e+00
4.79999989e-01,2.09431460e-06,5.98939414e-06,4.50067669e-01,6.85931349e+00
5.19999981e-01,5.12626048e-06,1.51182949e-05,5.16111195e-01,6.83790255e+00
5.60000002e-01,1.25667211e-05,3.61341627e-05,4.99010801e-01,6.94784880e+00
6.00000024e-01,2.57145512e-05,6.79732839e-05,4.26315695e-01,6.88908434e+00
6.41029537e-01,4.74998888e-05,1.15542513e-04,5.16069949e-01,7.05461979e+00
6.83115125e-01,6.56649645e-05,1.52534762e-04,5.37365496e-01,7.06366968e+00
7.26283848e-01,8.64144604e-05,1.92939275e-04,5.19740224e-01,7.51489782e+00
7.70563781e-01,9.53270937e-05,2.10611237e-04,5.84037185e-01,7.86578941e+00
8.15983355e-01,1.08960143e-04,2.50460551e-04,5.21445155e-01,8.08826256e+00
8.62571895e-01,1.34207934e-04,3.09713912e-04,5.95685780e-01,8.42506886e+00
9.10359621e-01,2.24093092e-04,5.16006607e-04,5.35933733e-01,8.76697159e+00
9.59377348e-01,3.28255293e-04,7.05606770e-04,7.40894973e-01,8.90980148e+00
1.00965667e+00,4.71351959e-04,9.47437831e-04,6.11917734e-01,9.98201466e+00
1.06123006e+00,5.93732111e-04,1.12647505e-03,6.91077352e-01,9.71604156e+00
1.11413085e+00,7.64991390e-04,1.39985001e-03,7.47186959e-01,1.08093624e+01
1.16839325e+00,1.02623750e-03,1.85380015e-03,7.23616481e-01,1.05771427e+01
1.22405231e+00,1.43461884e-03,2.56127212e-03,8.78773332e-01,1.18465996e+01
1.28114390e+00,2.10437458e-03,3.61841172e-03,8.76009107e-01,1.11625624e+01
1.33970511e+00,2.81012570e-03,4.64467611e-03,9.84535336e-01,1.27372475e+01
1.39977336e+00,2.06050977e+04,2.88482734e+04,1.93637188e+04,1.24308191e+03
1.46138775e+00,2.56328965e+04,3.58458516e+04,2.17269199e+04,1.31391797e+03
1.52458799e+00,1.56695771e+04,2.19106211e+04,1.34685059e+04,9.41359985e+02
1.58941495e+00,1.52729014e+04,2.13695840e+04,1.37297051e+04,1.17282983e+03
1.65591037e+00,1.53781152e+04,2.15209707e+04,1.40108203e+04,1.24377185e+03
1.72411728e+00,1.49024648e+04,2.08558555e+04,1.35940166e+04,1.21805115e+03
1.79407966e+00,1.39361914e+04,1.95034258e+04,1.27002715e+04,1.14763269e+03
1.86584306e+00,1.28802510e+04,1.80259277e+04,1.17436484e+04,1.09059070e+03
1.93945324e+00,1.19928047e+04,1.67849219e+04,1.09791074e+04,1.06376917e+03
2.01495814e+00,1.14698857e+04,1.60551367e+04,1.06008145e+04,1.09344556e+03
2.09240627e+00,1.14447969e+04,1.60228359e+04,1.07113984e+04,1.17657983e+03
2.17184782e+00,1.18523516e+04,1.65964219e+04,1.12396338e+04,1.31640747e+03
2.25333428e+00,1.27483281e+04,1.78544238e+04,1.22730449e+04,1.52984863e+03
2.33691788e+00,1.42055059e+04,1.98982070e+04,1.38498496e+04,1.80093433e+03
2.42265272e+00,1.56392012e+04,2.19077773e+04,1.53454209e+04,2.02685510e+03
2.51059437e+00,1.67147910e+04,2.34151523e+04,1.64668770e+04,2.18685913e+03
2.60079956e+00,1.74911367e+04,2.45029492e+04,1.72644258e+04,2.27814526e+03
2.69332647e+00,1.78900391e+04,2.50609355e+04,1.76206445e+04,2.27198315e+03
2.78823495e+00,1.80028926e+04,2.52176836e+04,1.76567988e+04,2.21393555e+03
2.88558602e+00,1.80517695e+04,2.52846270e+04,1.76110000e+04,2.13681152e+03
2.98544264e+00,1.80732656e+04,2.53131621e+04,1.75324531e+04,2.06884790e+03
3.08786964e+00,1.81564570e+04,2.54282129e+04,1.75190918e+04,2.01101624e+03
3.19293284e+00,1.82612578e+04,2.55730762e+04,1.75086973e+04,1.96040332e+03
3.30070019e+00,1.81787188e+04,2.54553203e+04,1.73096465e+04,1.88917346e+03
3.41124129e+00,1.75218613e+04,2.45328281e+04,1.65419004e+04,1.75818286e+03
3.52462745e+00,1.61228096e+04,2.25719512e+04,1.51136084e+04,1.58449194e+03
3.64093208e+00,1.46695400e+04,2.05369473e+04,1.37080605e+04,1.43853101e+03
3.76023054e+00,1.34142578e+04,1.87794141e+04,1.25038740e+04,1.32099585e+03
3.88259912e+00,1.21783203e+04,1.70503008e+04,1.13920166e+04,1.24399194e+03
4.00811720e+00,1.20969248e+04,1.69387617e+04,1.14178408e+04,1.30334839e+03
4.13686609e+00,1.27427988e+04,1.78438828e+04,1.20767021e+04,1.41514417e+03
4.26892853e+00,1.31497979e+04,1.84159414e+04,1.25904531e+04,1.53550476e+03
4.40439081e+00,1.42532539e+04,1.99607012e+04,1.36362783e+04,1.65676062e+03
4.54333878e+00,1.44415957e+04,2.02259375e+04,1.39089082e+04,1.74889490e+03
4.68586397e+00,1.67103477e+04,2.34063906e+04,1.62499121e+04,2.11868530e+03
4.83205652e+00,1.86284844e+04,2.60920977e+04,1.81087969e+04,2.37083813e+03
4.98201227e+00,1.78279863e+04,2.49748789e+04,1.75114004e+04,2.33395532e+03
5.13582754e+00,1.64615957e+04,2.30561387e+04,1.59568574e+04,1.99537610e+03
5.29360199e+00,1.21381201e+04,1.70032969e+04,1.18819551e+04,1.56632690e+03
5.45543718e+00,1.51634541e+04,2.12503750e+04,1.51639082e+04,2.03265613e+03
5.62143755e+00,2.34331191e+04,3.28266172e+04,2.28218984e+04,2.64561060e+03
5.79171038e+00,2.29434297e+04,3.21266973e+04,2.18860664e+04,2.54661938e+03
5.96636629e+00,2.28338691e+04,3.19789668e+04,2.20155859e+04,2.78936572e+03
6.14551687e+00,2.31614824e+04,3.24317871e+04,2.20605020e+04,2.63381055e+03
6.32927942e+00,1.61071924e+04,2.25486582e+04,1.51160635e+04,1.67316431e+03
6.51777077e+00,1.12038350e+04,1.56818457e+04,1.04288789e+04,1.10964453e+03
6.71111441e+00,1.06177080e+04,1.48602910e+04,9.85507715e+03,1.03327783e+03
6.90943432e+00,1.09042461e+04,1.52643789e+04,1.02438555e+04,1.13193457e+03
7.11285782e+00,1.15533809e+04,1.61792812e+04,1.10841924e+04,1.29962585e+03
7.32151794e+00,1.24116572e+04,1.73819043e+04,1.19289434e+04,1.39371594e+03
7.53554821e+00,1.20413262e+04,1.68623965e+04,1.15475674e+04,1.35248877e+03
7.75508738e+00,1.11392207e+04,1.55969326e+04,1.06113945e+04,1.23546484e+03
7.98027754e+00,8.35642969e+03,1.16970420e+04,7.86637305e+03,8.88377808e+02
8.21126270e+00,5.11658350e+03,7.16150488e+03,4.83635254e+03,5.58168030e+02
8.44819450e+00,3.94358276e+03,5.52053760e+03,3.79727759e+03,4.68561890e+02
8.69122219e+00,4.73720898e+03,6.63161523e+03,4.56824365e+03,5.55209534e+02
8.94050789e+00,5.92063867e+03,8.28626465e+03,5.63389307e+03,6.57262451e+02
9.19620800e+00,6.48122266e+03,9.07362891e+03,6.29043408e+03,8.02133545e+02
9.45849037e+00,8.17421338e+03,1.14534727e+04,8.24321094e+03,1.11611719e+03
9.72752285e+00,1.04175664e+04,1.45960762e+04,1.03960596e+04,1.26842798e+03
1.00034800e+01,8.39874219e+03,1.17581582e+04,8.09959619e+03,8.55417908e+02
1.02865391e+01,4.03672681e+03,5.65138232e+03,4.01795874e+03,4.33000397e+02
1.05768833e+01,2.47652759e+03,3.47412451e+03,2.81320068e+03,3.64139618e+02
1.08747025e+01,3.09237817e+03,4.34091895e+03,3.58500098e+03,4.38970428e+02
1.11801853e+01,4.10402051e+03,5.75981592e+03,4.64298779e+03,5.05197784e+02
1.14935322e+01,4.78830762e+03,6.72319238e+03,5.36667480e+03,5.58767822e+02
1.18149433e+01,4.77078906e+03,6.70604346e+03,5.45967773e+03,6.02455566e+02
1.21446266e+01,4.42922168e+03,6.23156982e+03,5.20497949e+03,5.76309509e+02
1.24827967e+01,4.03536475e+03,5.68113281e+03,4.71740771e+03,4.76531799e+02
1.28296700e+01,3.72898730e+03,5.25066797e+03,4.19455469e+03,3.82053406e+02
1.31854706e+01,3.49832129e+03,4.91863818e+03,3.69933545e+03,3.27258209e+02
1.35504293e+01,3.32185693e+03,4.67378564e+03,3.27152563e+03,3.17048676e+02
1.39247818e+01,3.63205127e+03,5.12166846e+03,3.14254639e+03,3.37193359e+02
1.43087692e+01,4.34325732e+03,6.11260449e+03,3.32499707e+03,3.67065369e+02
1.47026405e+01,5.13236621e+03,7.19726660e+03,3.85633447e+03,4.03169067e+02
1.51066484e+01,6.02389746e+03,8.42362500e+03,4.64439795e+03,4.26188599e+02
1.55210552e+01,6.78096191e+03,9.47184570e+03,5.13136377e+03,4.16051331e+02
1.59461288e+01,7.00022021e+03,9.73968164e+03,5.33816797e+03,3.99466461e+02
1.63821430e+01,6.81365869e+03,9.48144824e+03,5.34396582e+03,3.67023499e+02
1.68293781e+01,5.97163037e+03,8.31161914e+03,4.43101270e+03,2.59683716e+02
1.72881241e+01,4.25253076e+03,5.90788721e+03,2.68890894e+03,1.36730820e+02
1.77586803e+01,2.96101733e+03,4.10570898e+03,1.57358582e+03,9.44339447e+01
1.82413464e+01,2.35941333e+03,3.26298730e+03,1.29272083e+03,1.02423172e+02
1.87364349e+01,2.05738403e+03,2.85236035e+03,1.40571130e+03,1.14310913e+02
1.92442665e+01,2.00490491e+03,2.77717554e+03,1.49610828e+03,1.06469376e+02
1.97651691e+01,1.87750159e+03,2.60819653e+03,1.47339417e+03,9.16157532e+01
2.02994785e+01,1.71584180e+03,2.38954639e+03,1.38211487e+03,7.22898941e+01
2.08475418e+01,1.46187036e+03,2.03825244e+03,1.16301978e+03,5.92705536e+01
2.14097099e+01,1.20596655e+03,1.68103491e+03,8.90424744e+02,2.46755562e+01
2.19863453e+01,4.81431519e+02,6.66867737e+02,2.19449310e+02,3.74580995e-04
2.25778236e+01,4.71212845e+01,6.26072884e+01,2.94109941e-01,1.70764199e-03
2.31845264e+01,1.48269196e+01,1.90205555e+01,9.18669179e-02,1.34451684e-05
2.38068466e+01,6.25654793e+00,7.80414820e+00,2.56394669e-02,6.88375212e-06
2.44451809e+01,1.63452721e+00,1.97859704e+00,6.01440761e-03,4.56701810e-06
2.50999470e+01,4.29007024e-01,5.36019623e-01,2.18306479e-04,1.90035666e-06
2.57715645e+01,1.33501306e-01,1.68309554e-01,8.53043002e-06,5.23114807e-07
2.64604683e+01,4.02852707e-02,5.00267111e-02,1.68868826e-06,1.47223034e-07
2.71671047e+01,1.19461929e-02,1.45759834e-02,2.60199090e-06,4.08746246e-08
2.78919277e+01,1.73149549e-03,2.03080056e-03,2.19971525e-06,4.85114349e-09
2.86354065e+01,1.11045912e-04,1.20123863e-04,4.24389469e-07,3.36683598e-10
2.93980217e+01,7.48283037e-06,7.78450431e-06,3.12032107e-08,2.36352951e-11
3.01802654e+01,2.61008381e-07,2.87001200e-07,6.19488127e-10,1.09982216e-12
3.09826431e+01,7.63977237e-09,9.42063760e-09,5.59071192e-11,1.96066257e-14
3.18056717e+01,9.35208300e-11,9.04554209e-11,2.01429433e-12,2.76713461e-16
3.26498833e+01,2.59354257e-12,3.05824788e-12,2.85137345e-14,4.37747041e-18
3.35158234e+01,8.67083301e-14,1.01428855e-13,8.17786964e-16,4.05136003e-19
3.44040565e+01,1.38671035e-15,1.58435490e-15,8.92821861e-18,4.28502054e-21
3.53151436e+01,1.42301039e-17,1.76337503e-17,3.89904791e-19,1.98911366e-22
3.62496834e+01,5.14107175e-19,5.57470205e-19,2.22536739e-20,3.57858191e-24
3.72082787e+01,2.16823910e-20,2.79460611e-20,1.41353171e-22,9.70168936e-26
3.81915474e+01,1.74551492e-22,1.87154902e-22,1.13771113e-23,1.57726344e-27
3.92001228e+01,8.78374057e-24,1.12009437e-23,8.13742194e-26,3.38871827e-29
4.02346535e+01,9.27917793e-26,1.16446926e-25,3.76027460e-27,6.14423938e-31
4.12958107e+01,3.50766270e-27,4.59843354e-27,3.39903735e-29,1.08089747e-32
4.23842850e+01,4.16795073e-29,5.22806503e-29,1.00837112e-30,1.45021599e-34
4.35007744e+01,6.32368894e-31,9.63079324e-31,3.68606045e-33,1.40359928e-36
4.46459999e+01,3.01332026e-33,5.71370592e-33,1.13371758e-34,1.56454974e-38
4.58207016e+01,1.03627449e-34,8.73652886e-35,1.64728666e-36,2.46628530e-40
4.70256386e+01,1.46955573e-36,2.22296231e-36,2.36567207e-38,0.00000000e+00
4.82615852e+01,2.72804785e-38,3.63987276e-38,7.97338826e-40,0.00000000e+00
4.95293465e+01,1.14906474e-40,3.53127213e-40,4.20389539e-42,0.00000000e+00
5.08297386e+01,5.32493416e-41,2.80259693e-42,0.00000000e+00,0.00000000e+00
5.21635971e+01,0.00000000e+00,0.00000000e+00,0.00000000e+00,0.00000000e+00
5.35317917e+01,0.00000000e+00,0.00000000e+00,0.00000000e+00,0.00000000e+00
5.49351997e+01,0.00000000e+00,0.00000000e+00,0.00000000e+00,0.00000000e+00
5.63747253e+01,0.00000000e+00,0.00000000e+00,0.00000000e+00,0.00000000e+00
5.78513031e+01,0.00000000e+00,0.00000000e+00,0.00000000e+00,0.00000000e+00
5.93278885e+01,0.00000000e+00,0.00000000e+00,0.00000000e+00,0.00000000e+00
6.08044662e+01,0.00000000e+00,0.00000000e+00,0.00000000e+00,0.00000000e+00
6.22810478e+01,0.00000000e+00,0.00000000e+00,0.00000000e+00,0.00000000e+00
6.37576256e+01,0.00000000e+00,0.00000000e+00,0.00000000e+00,0.00000000e+00
6.52341995e+01,0.00000000e+00,0.00000000e+00,0.00000000e+00,0.00000000e+00
6.67107849e+01,0.00000000e+00,0.00000000e+00,0.00000000e+00,0.00000000e+00
6.81873703e+01,0.00000000e+00,0.00000000e+00,0.00000000e+00,0.00000000e+00
6.96639481e+01,0.00000000e+00,0.00000000e+00,0.00000000e+00,0.00000000e+00
7.11405258e+01,0.00000000e+00,0.00000000e+00,0.00000000e+00,0.00000000e+00
7.26171036e+01,0.00000000e+00,0.00000000e+00,0.00000000e+00,0.00000000e+00
7.40936813e+01,0.00000000e+00,0.00000000e+00,0.00000000e+00,0.00000000e+00
7.55702591e+01,0.00000000e+00,0.00000000e+00,0.00000000e+00,0.00000000e+00
7.70468445e+01,0.00000000e+00,0.00000000e+00,0.00000000e+00,0.00000000e+00
7.85234222e+01,0.00000000e+00,0.00000000e+00,0.00000000e+00,0.00000000e+00
8.00000000e+01,0.00000000e+00,0.00000000e+00,0.00000000e+00,0.00000000e+00
