Height (km), 7_8 um ash conc (g/kg), 15_6 um ash conc (g/kg), 125 um ash conc (g/kg), 1 mm ash conc (g/kg)
0.00000000e+00,0.00000000e+00,0.00000000e+00,0.00000000e+00,0.00000000e+00
3.99999991e-02,7.79674458e-09,1.58582196e-08,7.23831877e-02,8.49649525e+00
7.99999982e-02,4.83409437e-08,9.91615394e-08,7.63118863e-02,8.52424431e+00
1.19999997e-01,2.30772542e-07,3.99646240e-07,7.75689334e-02,8.53045654e+00
1.59999996e-01,1.20101777e-06,1.93170899e-06,8.14448819e-02,8.56272030e+00
2.00000003e-01,3.41906116e-06,5.55277893e-06,8.44320506e-02,8.56989574e+00
2.39999995e-01,9.32849798e-06,1.53131787e-05,8.88181329e-02,8.59425259e+00
2.80000001e-01,2.21119626e-05,3.71841306e-05,9.36601236e-02,8.60040665e+00
3.19999993e-01,4.30101754e-05,7.10226304e-05,9.99263003e-02,8.63302422e+00
3.60000014e-01,7.71437190e-05,1.25857798e-04,1.06597930e-01,8.72694302e+00
4.00000006e-01,1.26426865e-04,2.04825803e-04,1.16123915e-01,8.74101543e+00
4.39999998e-01,1.92002204e-04,3.14708683e-04,1.26620933e-01,8.80091858e+00
4.79999989e-01,2.94180791e-04,4.81959432e-04,1.39688879e-01,8.89400101e+00
5.19999981e-01,4.35104448e-04,7.07636238e-04,1.53688669e-01,8.91461945e+00
5.60000002e-01,6.00164349e-04,9.70294233e-04,1.71091318e-01,9.00595379e+00
6.00000024e-01,8.31583049e-04,1.33828551e-03,1.90666288e-01,9.00065327e+00
6.41029537e-01,1.14117144e-03,1.83034479e-03,2.13296235e-01,9.06904697e+00
6.83115125e-01,1.64413755e-03,2.61995033e-03,2.38027483e-01,8.95934105e+00
7.26283848e-01,2.47086282e-03,3.90261551e-03,2.69177258e-01,9.16392040e+00
7.70563781e-01,3.64395697e-03,5.68867894e-03,3.02165478e-01,9.01513481e+00
8.15983355e-01,5.38050383e-03,8.32444988e-03,3.43767345e-01,9.40310478e+00
8.62571895e-01,7.43337953e-03,1.14251031e-02,3.89668941e-01,9.09973049e+00
9.10359621e-01,1.03188669e-02,1.58129334e-02,4.48095918e-01,9.67913723e+00
9.59377348e-01,1.43299000e-02,2.19343137e-02,5.14259636e-01,9.43118000e+00
1.00965667e+00,2.01603509e-02,3.07333749e-02,5.99057972e-01,1.00174255e+01
1.06123006e+00,2.77437083e-02,4.21632007e-02,7.00251162e-01,9.56932259e+00
1.11413085e+00,3.61643359e-02,5.48496768e-02,8.05055320e-01,1.06997242e+01
1.16839325e+00,4.50328626e-02,6.82458058e-02,9.10983086e-01,9.90268993e+00
1.22405231e+00,5.40822484e-02,8.20003599e-02,1.01846409e+00,1.14024811e+01
1.28114390e+00,6.44292161e-02,9.79094580e-02,1.14341807e+00,1.03262024e+01
1.33970511e+00,7.75884166e-02,1.18165962e-01,1.29147601e+00,1.23547287e+01
1.39977336e+00,2.06714883e+04,2.89403340e+04,1.93478809e+04,1.13148267e+03
1.46138775e+00,2.52731562e+04,3.53398125e+04,2.11787148e+04,1.20569495e+03
1.52458799e+00,1.42692285e+04,1.99480645e+04,1.20895840e+04,8.10088867e+02
1.58941495e+00,1.32127695e+04,1.84851641e+04,1.18207949e+04,1.03180042e+03
1.65591037e+00,1.37885312e+04,1.92993281e+04,1.27434922e+04,1.25524255e+03
1.72411728e+00,1.50819219e+04,2.11151484e+04,1.41971006e+04,1.46863660e+03
1.79407966e+00,1.62535117e+04,2.27569375e+04,1.53616182e+04,1.56534167e+03
1.86584306e+00,1.65001230e+04,2.31002930e+04,1.54882988e+04,1.51035828e+03
1.93945324e+00,1.55898711e+04,2.18226016e+04,1.44535850e+04,1.32317871e+03
2.01495814e+00,1.38436836e+04,1.93749492e+04,1.26456631e+04,1.10508301e+03
2.09240627e+00,1.20271934e+04,1.68307812e+04,1.08765801e+04,9.43270447e+02
2.17184782e+00,1.08713770e+04,1.52145039e+04,9.87757910e+03,9.12794983e+02
2.25333428e+00,1.06675928e+04,1.49321299e+04,9.80319629e+03,9.73703613e+02
2.33691788e+00,1.09871240e+04,1.53828359e+04,1.02598223e+04,1.11740784e+03
2.42265272e+00,1.16955342e+04,1.63774346e+04,1.10473203e+04,1.25357593e+03
2.51059437e+00,1.28455195e+04,1.79896445e+04,1.22634150e+04,1.49712415e+03
2.60079956e+00,1.52593018e+04,2.13745371e+04,1.48536631e+04,1.93170374e+03
2.69332647e+00,1.85511211e+04,2.59838672e+04,1.80281836e+04,2.34664795e+03
2.78823495e+00,1.87786074e+04,2.63015078e+04,1.82630020e+04,2.41316113e+03
2.88558602e+00,1.74769648e+04,2.44816562e+04,1.71383086e+04,2.24183545e+03
2.98544264e+00,1.45899229e+04,2.04324668e+04,1.40699873e+04,1.73671179e+03
3.08786964e+00,1.16850850e+04,1.63714297e+04,1.15848340e+04,1.56870886e+03
3.19293284e+00,1.42880254e+04,2.00231621e+04,1.43336846e+04,1.96876172e+03
3.30070019e+00,2.04679512e+04,2.86853281e+04,2.04793887e+04,2.63555103e+03
3.41124129e+00,2.50271875e+04,3.50588086e+04,2.42661934e+04,2.77006030e+03
3.52462745e+00,2.01705859e+04,2.82447246e+04,1.92502871e+04,2.26801953e+03
3.64093208e+00,2.02617344e+04,2.83785449e+04,1.95757383e+04,2.48607104e+03
3.76023054e+00,2.51314961e+04,3.52013789e+04,2.42751113e+04,2.98142114e+03
3.88259912e+00,2.50337012e+04,3.50502852e+04,2.35728047e+04,2.52012451e+03
4.00811720e+00,1.56274385e+04,2.18739121e+04,1.44786543e+04,1.43545520e+03
4.13686609e+00,1.04805898e+04,1.46724141e+04,9.74765234e+03,9.83170288e+02
4.26892853e+00,1.14419521e+04,1.60240488e+04,1.08928281e+04,1.26155188e+03
4.40439081e+00,1.63882266e+04,2.29582910e+04,1.59179170e+04,1.92604529e+03
4.54333878e+00,1.92463125e+04,2.69541934e+04,1.84092949e+04,2.11350269e+03
4.68586397e+00,1.84291348e+04,2.58089238e+04,1.76148750e+04,2.11096143e+03
4.83205652e+00,1.95378887e+04,2.73660000e+04,1.88226543e+04,2.36318408e+03
4.98201227e+00,1.82657207e+04,2.55697227e+04,1.71530547e+04,1.98836499e+03
5.13582754e+00,9.94585059e+03,1.39145547e+04,9.13077051e+03,9.87261353e+02
5.29360199e+00,4.64234717e+03,6.49629492e+03,4.33760352e+03,4.96830872e+02
5.45543718e+00,4.51410352e+03,6.31979492e+03,4.30905908e+03,5.26849915e+02
5.62143755e+00,7.25515527e+03,1.01586797e+04,6.93995264e+03,8.30498596e+02
5.79171038e+00,1.03254893e+04,1.44563672e+04,9.80109082e+03,1.11878613e+03
5.96636629e+00,1.07102119e+04,1.49961357e+04,1.02046611e+04,1.17880786e+03
6.14551687e+00,1.09526230e+04,1.53390791e+04,1.05395488e+04,1.23846594e+03
6.32927942e+00,1.04521787e+04,1.46350547e+04,9.94201172e+03,1.09945752e+03
6.51777077e+00,6.59225244e+03,9.22662305e+03,6.18502490e+03,6.45531616e+02
6.71111441e+00,3.95874170e+03,5.54036572e+03,3.75759790e+03,4.04026947e+02
6.90943432e+00,3.80867505e+03,5.33062891e+03,3.64645288e+03,3.97004700e+02
7.11285782e+00,3.86611670e+03,5.41164209e+03,3.73523291e+03,4.17755219e+02
7.32151794e+00,3.70211108e+03,5.18462939e+03,3.68134766e+03,4.42082184e+02
7.53554821e+00,3.70470264e+03,5.19012012e+03,3.75684375e+03,4.56916718e+02
7.75508738e+00,3.58854614e+03,5.02643213e+03,3.62785352e+03,4.18808655e+02
7.98027754e+00,3.52046582e+03,4.93035742e+03,3.55542236e+03,3.92809448e+02
8.21126270e+00,3.99486060e+03,5.59562598e+03,4.04140625e+03,4.36480804e+02
8.44819450e+00,4.40237646e+03,6.16695215e+03,4.44520898e+03,4.57422119e+02
8.69122219e+00,3.54737305e+03,4.97023926e+03,3.65239771e+03,3.60816467e+02
8.94050789e+00,2.33876758e+03,3.28155640e+03,2.61901440e+03,2.66157898e+02
9.19620800e+00,2.21757666e+03,3.11394287e+03,2.55356152e+03,2.54550034e+02
9.45849037e+00,2.33528491e+03,3.27965649e+03,2.71254834e+03,2.83772827e+02
9.72752285e+00,2.44495483e+03,3.43734521e+03,3.04092676e+03,3.51330963e+02
1.00034800e+01,2.86945459e+03,4.03588965e+03,3.74926465e+03,4.06571259e+02
1.02865391e+01,3.08602124e+03,4.34063477e+03,4.22611084e+03,3.89850586e+02
1.05768833e+01,3.02475708e+03,4.25956201e+03,4.41464502e+03,3.61245544e+02
1.08747025e+01,3.24814966e+03,4.59480029e+03,4.66737549e+03,3.61548828e+02
1.11801853e+01,4.03382397e+03,5.73504492e+03,4.90551660e+03,3.63501709e+02
1.14935322e+01,5.03889551e+03,7.16094336e+03,4.86167822e+03,3.40465912e+02
1.18149433e+01,5.88574707e+03,8.33513867e+03,4.35128955e+03,2.97515106e+02
1.21446266e+01,6.49249609e+03,9.13324902e+03,3.71782300e+03,2.76535248e+02
1.24827967e+01,6.87062500e+03,9.56901953e+03,3.48105933e+03,2.69461517e+02
1.28296700e+01,6.44662500e+03,8.89476562e+03,3.31280054e+03,2.25991699e+02
1.31854706e+01,5.10764648e+03,7.01041016e+03,2.78082495e+03,1.60398499e+02
1.35504293e+01,3.62528027e+03,4.97725635e+03,2.11848828e+03,1.21944641e+02
1.39247818e+01,2.80944287e+03,3.87619043e+03,1.87167932e+03,1.00915619e+02
1.43087692e+01,2.52275488e+03,3.49843579e+03,1.78541602e+03,7.40278015e+01
1.47026405e+01,2.14537524e+03,2.97779346e+03,1.39850940e+03,4.15610199e+01
1.51066484e+01,1.33643250e+03,1.84513977e+03,6.58984924e+02,1.47555428e+01
1.55210552e+01,4.73076355e+02,6.47445251e+02,1.62929688e+02,1.26097238e+00
1.59461288e+01,1.52249451e+02,2.03559570e+02,1.36126709e+01,5.90836426e-05
1.63821430e+01,8.23594589e+01,1.07144882e+02,2.55497932e-01,1.46208458e-05
1.68293781e+01,5.24019852e+01,6.52699356e+01,8.28182250e-02,1.89887760e-05
1.72881241e+01,2.32017441e+01,2.78871136e+01,2.19754800e-02,7.43736882e-06
1.77586803e+01,1.21832056e+01,1.49572382e+01,2.36713979e-03,5.55959832e-06
1.82413464e+01,1.19496689e+01,1.49309816e+01,1.15761079e-03,4.55062764e-06
1.87364349e+01,6.96158838e+00,8.42195892e+00,3.04322399e-04,2.75238949e-06
1.92442665e+01,2.57393432e+00,3.00364757e+00,2.58800392e-05,1.78668256e-06
1.97651691e+01,7.13639081e-01,8.15025210e-01,1.10923866e-05,8.41306019e-07
2.02994785e+01,1.51976407e-01,1.66917607e-01,3.38207337e-06,2.56208381e-07
2.08475418e+01,2.93833856e-02,3.11351344e-02,1.19886681e-06,5.79305066e-08
2.14097099e+01,3.85734625e-03,3.90571402e-03,4.55816803e-07,9.28860810e-09
2.19863453e+01,3.55887401e-04,3.41265259e-04,8.66865051e-08,1.08264553e-09
2.25778236e+01,3.22774176e-05,3.03227644e-05,1.48231418e-08,1.08549218e-10
2.31845264e+01,3.13079659e-06,2.92088362e-06,2.31624298e-09,1.17205039e-11
2.38068466e+01,2.89004191e-07,2.89539997e-07,3.04977044e-10,1.16888465e-12
2.44451809e+01,2.42613911e-08,2.45188989e-08,3.58594127e-11,1.02789881e-13
2.50999470e+01,1.80569326e-09,1.86191351e-09,3.67985416e-12,8.13802405e-15
2.57715645e+01,1.18544424e-10,1.23705518e-10,3.23310741e-13,5.75311872e-16
2.64604683e+01,6.94657873e-12,7.29275754e-12,2.49176222e-14,3.25917532e-17
2.71671047e+01,3.69184745e-13,3.89047383e-13,1.82898638e-15,1.71715457e-18
2.78919277e+01,1.80719426e-14,1.90313446e-14,1.03326035e-16,8.96449105e-20
2.86354065e+01,8.49051903e-16,8.92775268e-16,5.28817434e-18,4.17773586e-21
2.93980217e+01,2.87763231e-17,3.02047813e-17,2.86488784e-19,1.89006554e-22
3.01802654e+01,1.12769285e-18,1.18171115e-18,1.31636359e-20,7.73012926e-24
3.09826431e+01,3.89963475e-20,4.09271971e-20,5.70214815e-22,2.91444489e-25
3.18056717e+01,1.37975847e-21,1.46833081e-21,2.33570276e-23,1.03054154e-26
3.26498833e+01,4.71406553e-23,5.11355952e-23,8.23298924e-25,3.34879230e-28
3.35158234e+01,1.54673802e-24,1.72133295e-24,2.76203283e-26,1.03441201e-29
3.44040565e+01,4.77172039e-26,5.39332183e-26,8.12541466e-28,2.98694690e-31
3.53151436e+01,1.37264369e-27,1.62038443e-27,2.23350427e-29,8.15126207e-33
3.62496834e+01,3.63492103e-29,4.29238808e-29,5.48623808e-31,2.06938709e-34
3.72082787e+01,8.66267302e-31,1.04968317e-30,1.24369080e-32,4.85139806e-36
3.81915474e+01,1.91703219e-32,2.32583077e-32,2.52653271e-34,1.04332276e-37
3.92001228e+01,3.86978250e-34,4.71474759e-34,4.80893957e-36,2.10194770e-39
4.02346535e+01,6.57935754e-36,8.15923873e-36,7.71849207e-38,3.22298647e-41
4.12958107e+01,1.02436319e-37,1.26427950e-37,1.17568941e-39,0.00000000e+00
4.23842850e+01,1.30320757e-39,1.61849973e-39,8.40779079e-42,0.00000000e+00
4.35007744e+01,1.12103877e-41,1.26116862e-41,0.00000000e+00,0.00000000e+00
4.46459999e+01,0.00000000e+00,0.00000000e+00,0.00000000e+00,0.00000000e+00
4.58207016e+01,0.00000000e+00,0.00000000e+00,0.00000000e+00,0.00000000e+00
4.70256386e+01,0.00000000e+00,0.00000000e+00,0.00000000e+00,0.00000000e+00
4.82615852e+01,0.00000000e+00,0.00000000e+00,0.00000000e+00,0.00000000e+00
4.95293465e+01,0.00000000e+00,0.00000000e+00,0.00000000e+00,0.00000000e+00
5.08297386e+01,0.00000000e+00,0.00000000e+00,0.00000000e+00,0.00000000e+00
5.21635971e+01,0.00000000e+00,0.00000000e+00,0.00000000e+00,0.00000000e+00
5.35317917e+01,0.00000000e+00,0.00000000e+00,0.00000000e+00,0.00000000e+00
5.49351997e+01,0.00000000e+00,0.00000000e+00,0.00000000e+00,0.00000000e+00
5.63747253e+01,0.00000000e+00,0.00000000e+00,0.00000000e+00,0.00000000e+00
5.78513031e+01,0.00000000e+00,0.00000000e+00,0.00000000e+00,0.00000000e+00
5.93278885e+01,0.00000000e+00,0.00000000e+00,0.00000000e+00,0.00000000e+00
6.08044662e+01,0.00000000e+00,0.00000000e+00,0.00000000e+00,0.00000000e+00
6.22810478e+01,0.00000000e+00,0.00000000e+00,0.00000000e+00,0.00000000e+00
6.37576256e+01,0.00000000e+00,0.00000000e+00,0.00000000e+00,0.00000000e+00
6.52341995e+01,0.00000000e+00,0.00000000e+00,0.00000000e+00,0.00000000e+00
6.67107849e+01,0.00000000e+00,0.00000000e+00,0.00000000e+00,0.00000000e+00
6.81873703e+01,0.00000000e+00,0.00000000e+00,0.00000000e+00,0.00000000e+00
6.96639481e+01,0.00000000e+00,0.00000000e+00,0.00000000e+00,0.00000000e+00
7.11405258e+01,0.00000000e+00,0.00000000e+00,0.00000000e+00,0.00000000e+00
7.26171036e+01,0.00000000e+00,0.00000000e+00,0.00000000e+00,0.00000000e+00
7.40936813e+01,0.00000000e+00,0.00000000e+00,0.00000000e+00,0.00000000e+00
7.55702591e+01,0.00000000e+00,0.00000000e+00,0.00000000e+00,0.00000000e+00
7.70468445e+01,0.00000000e+00,0.00000000e+00,0.00000000e+00,0.00000000e+00
7.85234222e+01,0.00000000e+00,0.00000000e+00,0.00000000e+00,0.00000000e+00
8.00000000e+01,0.00000000e+00,0.00000000e+00,0.00000000e+00,0.00000000e+00
