Height (km), 7_8 um ash conc (g/kg), 15_6 um ash conc (g/kg), 125 um ash conc (g/kg), 1 mm ash conc (g/kg)
0.00000000e+00,0.00000000e+00,0.00000000e+00,0.00000000e+00,0.00000000e+00
3.99999991e-02,9.86365599e-28,1.25577181e-27,7.31619777e-25,1.83184338e+00
7.99999982e-02,3.57259358e-26,4.58319435e-26,2.75621784e-23,2.07107139e+00
1.19999997e-01,4.08910414e-25,5.24762995e-25,1.18846568e-21,2.24988627e+00
1.59999996e-01,3.20655707e-24,4.67073892e-24,8.35646160e-20,2.41667151e+00
2.00000003e-01,1.28589502e-22,2.00997947e-22,4.21535541e-18,2.52911568e+00
2.39999995e-01,1.28464855e-21,2.00151293e-21,5.68107579e-17,2.63914204e+00
2.80000001e-01,1.46997637e-20,2.28679993e-20,7.12552967e-16,2.74454379e+00
3.19999993e-01,1.18437711e-19,1.93603264e-19,6.67857993e-15,2.84544373e+00
3.60000014e-01,8.80545963e-19,1.34418349e-18,4.51363732e-14,2.96230650e+00
4.00000006e-01,5.37605360e-18,8.30596703e-18,1.50259774e-12,3.08611536e+00
4.39999998e-01,3.52283756e-16,5.11659040e-16,1.79511836e-10,3.19105911e+00
4.79999989e-01,1.74835573e-15,2.57505089e-15,2.15591411e-09,3.32320857e+00
5.19999981e-01,6.99273259e-15,1.04270349e-14,1.82214333e-08,3.41496944e+00
5.60000002e-01,5.17296235e-14,7.76624384e-14,3.80311462e-07,3.54707241e+00
6.00000024e-01,9.43081876e-13,1.48945396e-12,5.58452302e-06,3.65402842e+00
6.41029537e-01,3.35730705e-12,5.43212957e-12,9.97395819e-06,3.80993795e+00
6.83115125e-01,1.49802410e-11,2.44327059e-11,2.12646046e-05,3.92372155e+00
7.26283848e-01,5.85433230e-11,9.86279391e-11,4.32491579e-05,4.05518866e+00
7.70563781e-01,1.89931237e-10,3.23758104e-10,6.38665369e-05,4.27598524e+00
8.15983355e-01,5.92061955e-10,1.02485265e-09,1.20424455e-04,4.38587427e+00
8.62571895e-01,1.60563207e-09,2.80358692e-09,1.73259192e-04,4.84782124e+00
9.10359621e-01,3.93581256e-09,6.95838809e-09,2.48497847e-04,4.76617050e+00
9.59377348e-01,1.03782796e-08,1.83022930e-08,3.69183370e-04,5.29644728e+00
1.00965667e+00,2.66869158e-08,4.75603912e-08,4.47614788e-04,5.19754982e+00
1.06123006e+00,6.50380656e-08,1.16938004e-07,5.49986667e-04,6.00849628e+00
1.11413085e+00,1.55882859e-07,2.79609310e-07,6.47278386e-04,5.79453182e+00
1.16839325e+00,3.77869668e-07,6.62867933e-07,7.18194060e-04,6.74822903e+00
1.22405231e+00,7.23492235e-07,1.23041843e-06,7.26268278e-04,6.64332294e+00
1.28114390e+00,1.12218015e-06,1.83102020e-06,7.44606892e-04,7.27294922e+00
1.33970511e+00,1.42560452e-06,2.32647994e-06,9.44050029e-04,7.68622255e+00
1.39977336e+00,2.01729062e+04,2.82582266e+04,1.99755469e+04,2.05878809e+03
1.46138775e+00,2.50564805e+04,3.50778477e+04,2.34650273e+04,1.87960229e+03
1.52458799e+00,1.45607500e+04,2.03815000e+04,1.36333076e+04,1.18159839e+03
1.58941495e+00,1.25680801e+04,1.75974980e+04,1.20310762e+04,1.21795813e+03
1.65591037e+00,1.21245039e+04,1.69802539e+04,1.18025781e+04,1.35122375e+03
1.72411728e+00,1.30069004e+04,1.82200059e+04,1.28656270e+04,1.64429248e+03
1.79407966e+00,1.49855342e+04,2.09953301e+04,1.50199658e+04,2.06613379e+03
1.86584306e+00,1.73205527e+04,2.42687617e+04,1.74755469e+04,2.45542651e+03
1.93945324e+00,1.90881094e+04,2.67451094e+04,1.92525156e+04,2.64760791e+03
2.01495814e+00,1.97055938e+04,2.76086406e+04,1.97891367e+04,2.61870996e+03
2.09240627e+00,1.92977812e+04,2.70350684e+04,1.92583359e+04,2.43210205e+03
2.17184782e+00,1.81062402e+04,2.53633477e+04,1.79319238e+04,2.15495508e+03
2.25333428e+00,1.64065371e+04,2.29802363e+04,1.61262275e+04,1.85267334e+03
2.33691788e+00,1.46193311e+04,2.04753906e+04,1.42788096e+04,1.59513745e+03
2.42265272e+00,1.29630654e+04,1.81547539e+04,1.26028271e+04,1.39052478e+03
2.51059437e+00,1.15583125e+04,1.61872061e+04,1.12184844e+04,1.25540112e+03
2.60079956e+00,1.05600049e+04,1.47896758e+04,1.02726953e+04,1.19275891e+03
2.69332647e+00,1.00854219e+04,1.41260684e+04,9.85828906e+03,1.20136304e+03
2.78823495e+00,9.93440918e+03,1.39155586e+04,9.75749121e+03,1.23992444e+03
2.88558602e+00,9.83612695e+03,1.37788643e+04,9.71005469e+03,1.28866455e+03
2.98544264e+00,9.88907031e+03,1.38540928e+04,9.81835840e+03,1.36197729e+03
3.08786964e+00,1.01616416e+04,1.42370645e+04,1.01503662e+04,1.46739709e+03
3.19293284e+00,1.07111064e+04,1.50080850e+04,1.07672363e+04,1.61891650e+03
3.30070019e+00,1.15341406e+04,1.61623574e+04,1.16590088e+04,1.80724609e+03
3.41124129e+00,1.26223701e+04,1.76881113e+04,1.28166924e+04,2.03155273e+03
3.52462745e+00,1.40652480e+04,1.97106758e+04,1.43310586e+04,2.30039648e+03
3.64093208e+00,1.58862588e+04,2.22629102e+04,1.62251777e+04,2.62299951e+03
3.76023054e+00,1.79546523e+04,2.51615977e+04,1.83679883e+04,2.97810156e+03
3.88259912e+00,2.00750469e+04,2.81328633e+04,2.05542285e+04,3.31783008e+03
4.00811720e+00,2.21777500e+04,3.10788359e+04,2.26927598e+04,3.60410083e+03
4.13686609e+00,2.37745918e+04,3.33148672e+04,2.42459102e+04,3.72473828e+03
4.26892853e+00,2.40077773e+04,3.36388906e+04,2.43332168e+04,3.56636646e+03
4.40439081e+00,2.29870918e+04,3.22057285e+04,2.31224180e+04,3.22249902e+03
4.54333878e+00,2.13934219e+04,2.99702656e+04,2.13557129e+04,2.84405078e+03
4.68586397e+00,1.94565039e+04,2.72547461e+04,1.92882988e+04,2.48342212e+03
4.83205652e+00,1.74436055e+04,2.44336387e+04,1.71955332e+04,2.17147363e+03
4.98201227e+00,1.55876445e+04,2.18331738e+04,1.53072070e+04,1.92934045e+03
5.13582754e+00,1.40931836e+04,1.97397148e+04,1.38165146e+04,1.76892017e+03
5.29360199e+00,1.30536895e+04,1.82839609e+04,1.28011348e+04,1.67980750e+03
5.45543718e+00,1.23389395e+04,1.72833730e+04,1.21238652e+04,1.64710718e+03
5.62143755e+00,1.18949727e+04,1.66622988e+04,1.17281797e+04,1.65167139e+03
5.79171038e+00,1.17764951e+04,1.64972031e+04,1.16562637e+04,1.70041553e+03
5.96636629e+00,1.18109980e+04,1.65463047e+04,1.17321133e+04,1.75552136e+03
6.14551687e+00,1.18497227e+04,1.66013320e+04,1.18157422e+04,1.81536133e+03
6.32927942e+00,1.19526611e+04,1.67463086e+04,1.19637031e+04,1.88171362e+03
6.51777077e+00,1.21893916e+04,1.70786543e+04,1.22418975e+04,1.95687695e+03
6.71111441e+00,1.25527578e+04,1.75883086e+04,1.26428379e+04,2.04517456e+03
6.90943432e+00,1.29557070e+04,1.81533613e+04,1.30807979e+04,2.13298291e+03
7.11285782e+00,1.35672998e+04,1.90106934e+04,1.37266113e+04,2.24892749e+03
7.32151794e+00,1.44659414e+04,2.02701426e+04,1.46608633e+04,2.40210938e+03
7.53554821e+00,1.55286309e+04,2.17595352e+04,1.57640439e+04,2.57995215e+03
7.75508738e+00,1.70199277e+04,2.38490410e+04,1.72802344e+04,2.79350342e+03
7.98027754e+00,1.83667227e+04,2.57355625e+04,1.86276191e+04,2.95821777e+03
8.21126270e+00,1.88230410e+04,2.63745391e+04,1.90744375e+04,2.99180200e+03
8.44819450e+00,1.98873535e+04,2.78649531e+04,2.01006035e+04,3.06899292e+03
8.69122219e+00,2.01468574e+04,2.82267578e+04,2.02649512e+04,2.98953735e+03
8.94050789e+00,1.82032695e+04,2.55029453e+04,1.82555020e+04,2.67293091e+03
9.19620800e+00,1.95381875e+04,2.73717695e+04,1.94911543e+04,2.76555396e+03
9.45849037e+00,1.96277051e+04,2.74946602e+04,1.94432891e+04,2.68560913e+03
9.72752285e+00,1.63197480e+04,2.28606035e+04,1.61491553e+04,2.31027051e+03
1.00034800e+01,1.63231992e+04,2.28653438e+04,1.61470039e+04,2.34971899e+03
1.02865391e+01,1.59541953e+04,2.23480664e+04,1.57732979e+04,2.32574121e+03
1.05768833e+01,1.29720947e+04,1.81709961e+04,1.28511768e+04,2.01873755e+03
1.08747025e+01,1.11471670e+04,1.56177227e+04,1.12005859e+04,1.95121191e+03
1.11801853e+01,1.26122793e+04,1.76714824e+04,1.27370156e+04,2.24073926e+03
1.14935322e+01,1.36943789e+04,1.91870820e+04,1.38417129e+04,2.44674561e+03
1.18149433e+01,1.45435566e+04,2.03795391e+04,1.48597402e+04,2.71860278e+03
1.21446266e+01,1.71568906e+04,2.40413711e+04,1.75461543e+04,3.11246631e+03
1.24827967e+01,1.79645371e+04,2.51709492e+04,1.83663008e+04,3.17000928e+03
1.28296700e+01,1.67923418e+04,2.35299395e+04,1.74064922e+04,3.04955688e+03
1.31854706e+01,2.00964219e+04,2.81603242e+04,2.09158320e+04,3.42146191e+03
1.35504293e+01,1.94260898e+04,2.72213945e+04,2.02941113e+04,3.21785645e+03
1.39247818e+01,1.72164570e+04,2.41309375e+04,1.83722500e+04,3.01275391e+03
1.43087692e+01,1.79977969e+04,2.52314727e+04,1.95199805e+04,3.09886792e+03
1.47026405e+01,1.99823438e+04,2.80171582e+04,2.18572852e+04,3.28128076e+03
1.51066484e+01,2.12332324e+04,2.97809941e+04,2.34154961e+04,3.32411768e+03
1.55210552e+01,1.92226816e+04,2.69821758e+04,2.14701152e+04,3.01315161e+03
1.59461288e+01,1.70341504e+04,2.39285332e+04,1.92175801e+04,2.79400195e+03
1.63821430e+01,1.83207988e+04,2.57245176e+04,2.06551973e+04,2.92817480e+03
1.68293781e+01,1.96888672e+04,2.76219805e+04,2.22420566e+04,2.98860107e+03
1.72881241e+01,2.03226738e+04,2.85094199e+04,2.31739902e+04,3.02688672e+03
1.77586803e+01,2.24515098e+04,3.15124004e+04,2.55411680e+04,3.26969092e+03
1.82413464e+01,2.57195938e+04,3.61080664e+04,2.86117871e+04,3.55462939e+03
1.87364349e+01,2.90463926e+04,4.07645234e+04,3.02890391e+04,3.62030737e+03
1.92442665e+01,3.02309824e+04,4.24065977e+04,2.99501191e+04,3.66012939e+03
1.97651691e+01,3.38499727e+04,4.74065195e+04,3.24761250e+04,3.96768018e+03
2.02994785e+01,3.74970586e+04,5.24666641e+04,3.48067109e+04,4.23382422e+03
2.08475418e+01,3.84425430e+04,5.37858438e+04,3.58976484e+04,4.23945264e+03
2.14097099e+01,3.82502109e+04,5.35208125e+04,3.55845586e+04,3.92359863e+03
2.19863453e+01,3.62433867e+04,5.06981602e+04,3.31802656e+04,3.59490820e+03
2.25778236e+01,3.59846016e+04,5.03412656e+04,3.29995078e+04,3.82364282e+03
2.31845264e+01,3.63725234e+04,5.08824062e+04,3.31756719e+04,3.49160107e+03
2.38068466e+01,3.15414004e+04,4.41216055e+04,2.88031582e+04,3.51275928e+03
2.44451809e+01,3.09206055e+04,4.32662422e+04,2.90520918e+04,3.64766699e+03
2.50999470e+01,2.98918984e+04,4.18133047e+04,2.71574980e+04,2.46002832e+03
2.57715645e+01,2.72173457e+04,3.80779141e+04,2.50695215e+04,2.91466309e+03
2.64604683e+01,2.62608438e+04,3.67579531e+04,2.50721055e+04,3.03351953e+03
2.71671047e+01,2.32101211e+04,3.24826836e+04,2.17542734e+04,2.03614819e+03
2.78919277e+01,1.60036309e+04,2.23854570e+04,1.41311230e+04,8.11846436e+02
2.86354065e+01,5.30858984e+03,7.40170947e+03,3.80170117e+03,4.82931404e+01
2.93980217e+01,9.78820740e+02,1.35756104e+03,5.34801392e+02,1.45552397e+00
3.01802654e+01,7.83059570e+02,1.08880493e+03,4.78039642e+02,2.38991833e+00
3.09826431e+01,1.17632886e+03,1.63717139e+03,7.07137451e+02,1.60678923e+00
3.18056717e+01,8.62189087e+02,1.19808105e+03,4.38703064e+02,2.42381960e-01
3.26498833e+01,5.98695435e+02,8.28858521e+02,2.08831421e+02,7.83195496e-02
3.35158234e+01,2.46672699e+02,3.40103760e+02,7.16961746e+01,6.51603565e-02
3.44040565e+01,8.83724213e+01,1.21414764e+02,2.17771301e+01,6.61569759e-02
3.53151436e+01,2.62909927e+01,3.59772949e+01,5.32584763e+00,3.38147879e-02
3.62496834e+01,1.30296516e+01,1.78937054e+01,3.04323864e+00,1.74683798e-02
3.72082787e+01,1.05757236e+01,1.44897509e+01,2.24575138e+00,7.17872940e-03
3.81915474e+01,3.24227381e+00,4.44658184e+00,9.43232298e-01,4.66522790e-04
3.92001228e+01,4.51798826e-01,6.19573832e-01,1.21466659e-01,3.61019943e-07
4.02346535e+01,6.13401458e-02,8.34275931e-02,5.89117175e-03,1.00924943e-07
4.12958107e+01,1.77548714e-02,2.40114015e-02,1.07029255e-03,3.79891461e-08
4.23842850e+01,4.33589239e-03,5.82727604e-03,1.84169243e-04,1.11968532e-08
4.35007744e+01,8.54453479e-04,1.14006968e-03,2.53960716e-05,3.02498249e-09
4.46459999e+01,1.67420891e-04,2.21417198e-04,4.13299131e-06,8.85885754e-10
4.58207016e+01,1.81205487e-05,2.37626791e-05,6.01358579e-07,1.40439424e-10
4.70256386e+01,6.05325283e-07,7.91118339e-07,3.70699524e-08,5.13871064e-12
4.82615852e+01,8.80070239e-09,1.16461196e-08,8.50942983e-10,6.33240341e-14
4.95293465e+01,5.18832997e-11,6.95229221e-11,5.57361535e-12,2.41098293e-16
5.08297386e+01,7.04884759e-14,9.49877180e-14,8.50644865e-15,2.19268959e-19
5.21635971e+01,3.23120901e-17,5.46563726e-17,8.82032613e-19,2.43556718e-23
5.35317917e+01,1.22259425e-18,1.51126622e-18,5.98410696e-20,3.67216526e-25
5.49351997e+01,3.64238772e-20,4.94545180e-20,2.73872463e-22,5.34834636e-27
5.63747253e+01,1.14071660e-21,1.31774880e-21,6.68384332e-24,7.46563572e-29
5.78513031e+01,8.10533754e-24,9.99989824e-24,1.07596449e-25,1.18286733e-30
5.93278885e+01,6.62584242e-25,7.52884263e-25,1.06587810e-27,4.26901844e-32
6.08044662e+01,3.93705032e-27,4.57141890e-27,3.45286137e-29,5.36510224e-34
6.22810478e+01,2.86740996e-28,3.59689662e-28,2.85840212e-31,5.01920820e-35
6.37576256e+01,2.30881479e-30,2.90898402e-30,1.24406534e-32,5.41407065e-37
6.52341995e+01,1.68808230e-31,2.79884946e-31,1.48028764e-34,5.39051493e-38
6.67107849e+01,2.05662288e-33,3.75221948e-33,1.18210938e-35,1.38308158e-39
6.81873703e+01,2.41159118e-34,3.98707434e-34,2.03789423e-37,8.68805048e-41
6.96639481e+01,6.96641330e-36,6.87957710e-36,2.70436591e-38,0.00000000e+00
7.11405258e+01,5.10791496e-37,7.23186282e-37,4.70836284e-40,0.00000000e+00
7.26171036e+01,1.41741340e-38,1.82350969e-38,3.50324616e-41,0.00000000e+00
7.40936813e+01,6.17972623e-40,6.78228457e-40,0.00000000e+00,0.00000000e+00
7.55702591e+01,1.12103877e-41,2.66246708e-41,0.00000000e+00,0.00000000e+00
7.70468445e+01,0.00000000e+00,0.00000000e+00,0.00000000e+00,0.00000000e+00
7.85234222e+01,0.00000000e+00,0.00000000e+00,0.00000000e+00,0.00000000e+00
8.00000000e+01,0.00000000e+00,0.00000000e+00,0.00000000e+00,0.00000000e+00
