Height (km), 7_8 um ash conc (g/kg), 15_6 um ash conc (g/kg), 125 um ash conc (g/kg), 1 mm ash conc (g/kg)
0.00000000e+00,0.00000000e+00,0.00000000e+00,0.00000000e+00,0.00000000e+00
3.99999991e-02,5.08671070e-25,7.39664285e-25,1.18194878e-22,1.70415664e+00
7.99999982e-02,2.59763974e-19,3.90061490e-19,5.33464642e-20,1.82458854e+00
1.19999997e-01,4.39508588e-17,6.61864530e-17,8.30860160e-18,1.82920849e+00
1.59999996e-01,1.93703412e-15,2.84462802e-15,1.31795764e-15,1.89791632e+00
2.00000003e-01,5.61850967e-13,7.83393749e-13,3.75004368e-11,1.98454511e+00
2.39999995e-01,2.88973047e-11,4.06717091e-11,3.26888494e-09,2.01500750e+00
2.80000001e-01,3.58414964e-10,5.19438770e-10,1.33410637e-07,2.04888916e+00
3.19999993e-01,2.94396019e-09,4.32444480e-09,3.06850816e-05,2.08707833e+00
3.60000014e-01,1.77849273e-08,2.66893281e-08,3.81862745e-04,2.20293832e+00
4.00000006e-01,8.14495493e-08,1.24002838e-07,9.69495159e-04,2.26056433e+00
4.39999998e-01,3.09811583e-07,4.77831634e-07,2.71901255e-03,2.49519801e+00
4.79999989e-01,1.00698651e-06,1.63456366e-06,6.74302038e-03,2.64571571e+00
5.19999981e-01,2.14029296e-06,3.46040315e-06,1.01561546e-02,2.71504784e+00
5.60000002e-01,3.95748793e-06,6.29485930e-06,1.72598399e-02,3.11524773e+00
6.00000024e-01,7.26854341e-06,1.15030361e-05,2.47198716e-02,3.07222319e+00
6.41029537e-01,1.31484903e-05,2.05215401e-05,3.71404365e-02,3.52866697e+00
6.83115125e-01,3.12401316e-05,4.69787556e-05,4.83215377e-02,3.66515994e+00
7.26283848e-01,7.38144736e-05,1.07920147e-04,6.63544685e-02,3.78692985e+00
7.70563781e-01,1.45101629e-04,2.07940524e-04,7.62519687e-02,4.46793652e+00
8.15983355e-01,2.82324268e-04,3.96658259e-04,9.80138555e-02,4.55207491e+00
8.62571895e-01,5.14382671e-04,7.11134053e-04,1.10489771e-01,5.23964834e+00
9.10359621e-01,8.32803489e-04,1.13348034e-03,1.06434770e-01,5.48880005e+00
9.59377348e-01,1.18406466e-03,1.59764406e-03,9.46457237e-02,6.86148643e+00
1.00965667e+00,1.71284273e-03,2.35868664e-03,9.52401981e-02,6.16725016e+00
1.06123006e+00,3.11184837e-03,4.51933220e-03,9.79358256e-02,9.06057358e+00
1.11413085e+00,5.79903368e-03,8.54424015e-03,1.04348920e-01,7.81934309e+00
1.16839325e+00,9.23297182e-03,1.35688931e-02,1.14040911e-01,9.13414001e+00
1.22405231e+00,1.41682038e-02,2.07038969e-02,1.26774594e-01,8.88507938e+00
1.28114390e+00,2.52581593e-02,3.65549102e-02,1.50406644e-01,1.01017265e+01
1.33970511e+00,4.77914736e-02,6.85107931e-02,1.86719552e-01,1.07392864e+01
1.39977336e+00,2.01609902e+04,2.82419336e+04,1.99907188e+04,2.09835742e+03
1.46138775e+00,2.54871934e+04,3.56825742e+04,2.39613574e+04,1.98715015e+03
1.52458799e+00,1.49593340e+04,2.09418242e+04,1.41335234e+04,1.29454810e+03
1.58941495e+00,1.46994580e+04,2.05848359e+04,1.42194805e+04,1.50953101e+03
1.65591037e+00,1.51872988e+04,2.12703398e+04,1.48041797e+04,1.62617188e+03
1.72411728e+00,1.50317314e+04,2.10523008e+04,1.46454609e+04,1.59560278e+03
1.79407966e+00,1.38806973e+04,1.94392266e+04,1.34698154e+04,1.43334033e+03
1.86584306e+00,1.21225781e+04,1.69762773e+04,1.17195732e+04,1.23989185e+03
1.93945324e+00,1.05174746e+04,1.47288818e+04,1.01792305e+04,1.10964392e+03
2.01495814e+00,9.89581641e+03,1.38598008e+04,9.64291406e+03,1.11956042e+03
2.09240627e+00,1.01225518e+04,1.41791875e+04,9.94755273e+03,1.23180762e+03
2.17184782e+00,1.08887588e+04,1.52544980e+04,1.08026934e+04,1.43670715e+03
2.25333428e+00,1.26645654e+04,1.77447422e+04,1.27057754e+04,1.81536230e+03
2.33691788e+00,1.56271865e+04,2.18978945e+04,1.58272109e+04,2.38959717e+03
2.42265272e+00,1.80586445e+04,2.53052227e+04,1.83397812e+04,2.78499097e+03
2.51059437e+00,1.89446816e+04,2.65466797e+04,1.92589844e+04,2.94040405e+03
2.60079956e+00,1.91458359e+04,2.68285039e+04,1.94718750e+04,2.94931006e+03
2.69332647e+00,1.86428203e+04,2.61226367e+04,1.89064277e+04,2.79960474e+03
2.78823495e+00,1.73121582e+04,2.42570234e+04,1.74927773e+04,2.51573779e+03
2.88558602e+00,1.64700781e+04,2.30764961e+04,1.65957246e+04,2.34755664e+03
2.98544264e+00,1.61211816e+04,2.25871484e+04,1.62044277e+04,2.25020923e+03
3.08786964e+00,1.60007803e+04,2.24184160e+04,1.60657363e+04,2.22123779e+03
3.19293284e+00,1.73180527e+04,2.42648320e+04,1.73989883e+04,2.40351562e+03
3.30070019e+00,1.90781484e+04,2.67295195e+04,1.90791113e+04,2.56218921e+03
3.41124129e+00,1.87690078e+04,2.62948438e+04,1.87012246e+04,2.47979834e+03
3.52462745e+00,1.84791758e+04,2.58876621e+04,1.83565371e+04,2.39922461e+03
3.64093208e+00,1.74984414e+04,2.45124062e+04,1.73103516e+04,2.23604834e+03
3.76023054e+00,1.59083066e+04,2.22843359e+04,1.57017754e+04,2.03027124e+03
3.88259912e+00,1.40058438e+04,1.96191738e+04,1.38108906e+04,1.81039441e+03
4.00811720e+00,1.24108730e+04,1.73865215e+04,1.23054521e+04,1.69650049e+03
4.13686609e+00,1.24552256e+04,1.74502441e+04,1.24250957e+04,1.77699390e+03
4.26892853e+00,1.29004609e+04,1.80740918e+04,1.28883848e+04,1.86521045e+03
4.40439081e+00,1.25611113e+04,1.76000625e+04,1.26259902e+04,1.91326428e+03
4.54333878e+00,1.36628799e+04,1.91464121e+04,1.38518906e+04,2.18794409e+03
4.68586397e+00,1.65373086e+04,2.31741699e+04,1.67563516e+04,2.59686719e+03
4.83205652e+00,1.64850098e+04,2.30995938e+04,1.66636465e+04,2.56989917e+03
4.98201227e+00,1.66621250e+04,2.33480117e+04,1.68709277e+04,2.64192383e+03
5.13582754e+00,1.74367441e+04,2.44325820e+04,1.76323633e+04,2.74426611e+03
5.29360199e+00,1.67459180e+04,2.34635605e+04,1.68979102e+04,2.59899707e+03
5.45543718e+00,1.49654395e+04,2.09675605e+04,1.50496494e+04,2.28448975e+03
5.62143755e+00,1.32980537e+04,1.86307344e+04,1.33431035e+04,2.02833203e+03
5.79171038e+00,1.25083789e+04,1.75241973e+04,1.25384062e+04,1.91515295e+03
5.96636629e+00,1.23450615e+04,1.72949863e+04,1.23506152e+04,1.88277380e+03
6.14551687e+00,1.22127344e+04,1.71093203e+04,1.21995967e+04,1.86049585e+03
6.32927942e+00,1.21901514e+04,1.70777871e+04,1.21727725e+04,1.86668860e+03
6.51777077e+00,1.24946562e+04,1.75042656e+04,1.24616162e+04,1.90251599e+03
6.71111441e+00,1.26790391e+04,1.77621699e+04,1.26216895e+04,1.92313452e+03
6.90943432e+00,1.25922471e+04,1.76404453e+04,1.25296113e+04,1.92764197e+03
7.11285782e+00,1.25994502e+04,1.76504609e+04,1.25359395e+04,1.94805872e+03
7.32151794e+00,1.26758730e+04,1.77573086e+04,1.26041025e+04,1.97017114e+03
7.53554821e+00,1.24281895e+04,1.74100039e+04,1.23454844e+04,1.94172266e+03
7.75508738e+00,1.14312539e+04,1.60133574e+04,1.13548594e+04,1.82503674e+03
7.98027754e+00,9.65902051e+03,1.35310645e+04,9.61200098e+03,1.61895166e+03
8.21126270e+00,8.02047021e+03,1.12369795e+04,8.03597949e+03,1.46030505e+03
8.44819450e+00,7.76011035e+03,1.08728311e+04,7.80446191e+03,1.45569373e+03
8.69122219e+00,8.22312695e+03,1.15208740e+04,8.25189844e+03,1.52271399e+03
8.94050789e+00,8.82573926e+03,1.23654814e+04,8.89043066e+03,1.65490503e+03
9.19620800e+00,1.09285039e+04,1.53128594e+04,1.10715449e+04,1.99477783e+03
9.45849037e+00,1.50407344e+04,2.10737969e+04,1.51928408e+04,2.51906201e+03
9.72752285e+00,1.67080117e+04,2.34091406e+04,1.68489277e+04,2.73092822e+03
1.00034800e+01,1.74964316e+04,2.45168945e+04,1.77730703e+04,2.94656641e+03
1.02865391e+01,2.01067461e+04,2.81724863e+04,2.03747070e+04,3.24824121e+03
1.05768833e+01,1.90930410e+04,2.67477910e+04,1.92444238e+04,2.93974268e+03
1.08747025e+01,1.32271973e+04,1.85286309e+04,1.34102617e+04,2.11245215e+03
1.11801853e+01,8.73730664e+03,1.22431650e+04,9.20795215e+03,1.67519897e+03
1.14935322e+01,8.88278125e+03,1.24522930e+04,9.67026270e+03,1.86082703e+03
1.18149433e+01,1.09362891e+04,1.53353711e+04,1.20017910e+04,2.27533984e+03
1.21446266e+01,1.25726816e+04,1.76331445e+04,1.37420459e+04,2.58457715e+03
1.24827967e+01,1.33783809e+04,1.87628867e+04,1.45944238e+04,2.68692236e+03
1.28296700e+01,1.31410732e+04,1.84297148e+04,1.44301270e+04,2.66819238e+03
1.31854706e+01,1.18155098e+04,1.65776133e+04,1.33937227e+04,2.65594873e+03
1.35504293e+01,1.19129639e+04,1.67228965e+04,1.37138184e+04,2.88832104e+03
1.39247818e+01,1.37885830e+04,1.93526445e+04,1.60709473e+04,3.28299512e+03
1.43087692e+01,1.62482285e+04,2.28043613e+04,1.92881758e+04,3.47600391e+03
1.47026405e+01,1.86399238e+04,2.61685684e+04,2.23390469e+04,3.41828882e+03
1.51066484e+01,2.10841602e+04,2.96073418e+04,2.52992148e+04,3.30056299e+03
1.55210552e+01,2.33165469e+04,3.27460078e+04,2.78135430e+04,3.18854614e+03
1.59461288e+01,2.59461523e+04,3.64398945e+04,3.01236641e+04,3.14853833e+03
1.63821430e+01,2.83441348e+04,3.98149297e+04,3.12357969e+04,3.11917139e+03
1.68293781e+01,3.13699473e+04,4.40194922e+04,3.15030918e+04,3.23811572e+03
1.72881241e+01,3.38330938e+04,4.73923203e+04,3.24647910e+04,3.56744336e+03
1.77586803e+01,3.57801992e+04,5.00987969e+04,3.31132578e+04,3.74020776e+03
1.82413464e+01,3.64279219e+04,5.09465195e+04,3.22180898e+04,3.69211230e+03
1.87364349e+01,3.51827031e+04,4.91813594e+04,3.13226797e+04,3.66317944e+03
1.92442665e+01,3.49308984e+04,4.88427422e+04,3.12811699e+04,3.60810352e+03
1.97651691e+01,3.38507344e+04,4.73356055e+04,3.04531055e+04,3.41062817e+03
2.02994785e+01,2.98523281e+04,4.17425664e+04,2.65815977e+04,2.91799878e+03
2.08475418e+01,2.67822148e+04,3.74488398e+04,2.39352715e+04,2.68484009e+03
2.14097099e+01,2.53371250e+04,3.54192617e+04,2.21905039e+04,2.27437695e+03
2.19863453e+01,2.43597500e+04,3.40500742e+04,2.15168867e+04,2.26868945e+03
2.25778236e+01,2.15027715e+04,3.00435977e+04,1.85044922e+04,1.46857837e+03
2.31845264e+01,1.62700127e+04,2.27211387e+04,1.34713018e+04,7.38257080e+02
2.38068466e+01,1.21344883e+04,1.69442266e+04,9.77901074e+03,4.32340271e+02
2.44451809e+01,4.86854004e+03,6.78512988e+03,3.38076050e+03,7.32370911e+01
2.50999470e+01,1.86490271e+03,2.59485278e+03,1.18305872e+03,1.86468372e+01
2.57715645e+01,8.27459290e+02,1.14850244e+03,4.05883667e+02,8.78400445e-01
2.64604683e+01,5.47486938e+02,7.57211853e+02,1.95388611e+02,4.89883423e-01
2.71671047e+01,2.33562042e+02,3.20656921e+02,4.56737518e+01,1.25535578e-02
2.78919277e+01,8.24490204e+01,1.12659904e+02,1.32337370e+01,3.52482945e-02
2.86354065e+01,4.70930519e+01,6.44444885e+01,7.16988659e+00,1.11439284e-02
2.93980217e+01,3.07205429e+01,4.20418854e+01,3.72033310e+00,9.25565977e-03
3.01802654e+01,1.74423180e+01,2.37516441e+01,1.02417982e+00,1.34743794e-04
3.09826431e+01,5.64837790e+00,7.59913445e+00,2.36258850e-01,1.19399228e-05
3.18056717e+01,1.82627141e+00,2.45039964e+00,1.49233013e-01,4.59282273e-06
3.26498833e+01,8.90302420e-01,1.19569731e+00,1.90833248e-02,1.50521032e-06
3.35158234e+01,3.90918195e-01,5.18592715e-01,3.33126285e-03,4.51069099e-07
3.44040565e+01,1.15977131e-01,1.52101025e-01,1.18093286e-03,1.18827373e-07
3.53151436e+01,2.38090754e-02,3.07922587e-02,8.71739903e-05,9.39556344e-09
3.62496834e+01,2.96276412e-03,3.78711405e-03,5.09870188e-06,4.60103566e-10
3.72082787e+01,3.15847894e-04,4.02000966e-04,1.10051440e-06,2.57950994e-10
3.81915474e+01,1.87509031e-05,2.35935313e-05,1.23094594e-07,1.74965598e-11
3.92001228e+01,2.92870737e-07,3.64107734e-07,8.36664960e-09,2.96896649e-13
4.02346535e+01,8.23565927e-09,1.07711555e-08,4.24283608e-10,3.40656407e-15
4.12958107e+01,1.81751919e-10,2.25915855e-10,1.28941684e-11,6.66415083e-17
4.23842850e+01,4.48558378e-12,5.76618267e-12,2.93833263e-13,1.41494331e-18
4.35007744e+01,1.47025607e-13,1.88077865e-13,1.12963431e-14,2.97433210e-20
4.46459999e+01,2.67406014e-15,3.37015944e-15,5.63778645e-17,4.81693110e-22
4.58207016e+01,5.30850313e-18,6.75134518e-18,8.77775322e-19,1.00443466e-23
4.70256386e+01,2.08079020e-18,1.90356965e-18,3.33540730e-19,8.65715617e-26
4.82615852e+01,2.77033321e-20,4.80833822e-20,9.81349593e-23,1.86559403e-27
4.95293465e+01,2.92525729e-22,2.39029449e-22,8.69385428e-23,2.02263841e-29
5.08297386e+01,1.26208807e-23,2.25937541e-23,1.56091091e-26,4.50559367e-31
5.21635971e+01,4.26324376e-26,4.94086850e-26,1.80483656e-26,6.63235145e-33
5.35317917e+01,4.34693636e-27,7.27785276e-27,3.98110145e-30,4.11978536e-34
5.49351997e+01,1.23490876e-29,2.24525650e-29,4.29535040e-30,4.88181606e-36
5.63747253e+01,1.69514730e-30,2.80616795e-30,2.63035118e-33,2.89722650e-37
5.78513031e+01,5.40368104e-33,1.84886233e-32,1.55224543e-33,3.26782802e-39
5.93278885e+01,7.10168116e-34,9.47460753e-34,5.05057670e-36,1.37327250e-40
6.08044662e+01,1.11581692e-35,1.63137867e-35,1.05315153e-36,0.00000000e+00
6.22810478e+01,4.08585091e-37,5.63792909e-37,8.75391151e-39,0.00000000e+00
6.37576256e+01,1.64806712e-38,2.14146431e-38,6.38992100e-40,0.00000000e+00
6.52341995e+01,4.62428493e-40,5.85742758e-40,0.00000000e+00,0.00000000e+00
6.67107849e+01,2.80259693e-42,4.20389539e-42,0.00000000e+00,0.00000000e+00
6.81873703e+01,0.00000000e+00,0.00000000e+00,0.00000000e+00,0.00000000e+00
6.96639481e+01,0.00000000e+00,0.00000000e+00,0.00000000e+00,0.00000000e+00
7.11405258e+01,0.00000000e+00,0.00000000e+00,0.00000000e+00,0.00000000e+00
7.26171036e+01,0.00000000e+00,0.00000000e+00,0.00000000e+00,0.00000000e+00
7.40936813e+01,0.00000000e+00,0.00000000e+00,0.00000000e+00,0.00000000e+00
7.55702591e+01,0.00000000e+00,0.00000000e+00,0.00000000e+00,0.00000000e+00
7.70468445e+01,0.00000000e+00,0.00000000e+00,0.00000000e+00,0.00000000e+00
7.85234222e+01,0.00000000e+00,0.00000000e+00,0.00000000e+00,0.00000000e+00
8.00000000e+01,0.00000000e+00,0.00000000e+00,0.00000000e+00,0.00000000e+00
