Height (km), 7_8 um ash conc (g/kg), 15_6 um ash conc (g/kg), 125 um ash conc (g/kg), 1 mm ash conc (g/kg)
0.00000000e+00,0.00000000e+00,0.00000000e+00,0.00000000e+00,0.00000000e+00
3.99999991e-02,6.71511957e-09,1.48807473e-08,5.46107814e-02,9.70267105e+00
7.99999982e-02,3.60254226e-08,7.81393794e-08,7.15740621e-02,1.01197777e+01
1.19999997e-01,6.23012113e-08,1.41359649e-07,7.77607411e-02,1.01573486e+01
1.59999996e-01,1.39526904e-07,3.26899567e-07,8.43877345e-02,1.04373131e+01
2.00000003e-01,1.90982746e-07,4.97415726e-07,8.63222778e-02,1.04978018e+01
2.39999995e-01,3.66895620e-07,1.01288981e-06,9.10781249e-02,1.06566067e+01
2.80000001e-01,6.65631660e-07,1.95785469e-06,9.19619054e-02,1.06985483e+01
3.19999993e-01,1.37655343e-06,4.42487817e-06,8.80123526e-02,1.07732916e+01
3.60000014e-01,3.62647597e-06,1.16620959e-05,9.27990600e-02,1.07202377e+01
4.00000006e-01,9.31160048e-06,2.89308700e-05,9.33694541e-02,1.08966942e+01
4.39999998e-01,3.14138015e-05,9.19363447e-05,1.15919709e-01,1.08267336e+01
4.79999989e-01,4.80009330e-05,1.36788236e-04,9.33994949e-02,1.12565670e+01
5.19999981e-01,1.74839355e-04,4.26387734e-04,1.28773227e-01,1.12833233e+01
5.60000002e-01,3.81524093e-04,9.91022214e-04,1.14795722e-01,1.15739136e+01
6.00000024e-01,5.01721282e-04,1.25837186e-03,1.42929181e-01,1.17009735e+01
6.41029537e-01,2.01631826e-03,4.73963609e-03,1.29316896e-01,1.21579971e+01
6.83115125e-01,2.33536190e-03,5.42970095e-03,1.51377916e-01,1.20277834e+01
7.26283848e-01,3.63059854e-03,8.14820267e-03,1.60171658e-01,1.24102440e+01
7.70563781e-01,5.68471756e-03,1.24708684e-02,1.67399466e-01,1.27265940e+01
8.15983355e-01,9.43945907e-03,2.02577990e-02,1.78084612e-01,1.33088093e+01
8.62571895e-01,1.43584721e-02,3.01039089e-02,1.97733551e-01,1.33979530e+01
9.10359621e-01,2.32127681e-02,4.52858135e-02,2.05574244e-01,1.45557117e+01
9.59377348e-01,3.50805148e-02,6.37336224e-02,2.42782474e-01,1.42032166e+01
1.00965667e+00,4.95843515e-02,8.34401250e-02,2.87950397e-01,1.58397141e+01
1.06123006e+00,6.65596053e-02,1.05601750e-01,3.29954416e-01,1.42973557e+01
1.11413085e+00,9.09812599e-02,1.40126571e-01,4.02590394e-01,1.82273884e+01
1.16839325e+00,1.21528164e-01,1.84758276e-01,4.82958376e-01,1.54095755e+01
1.22405231e+00,1.57859147e-01,2.37598658e-01,5.82072377e-01,1.92415771e+01
1.28114390e+00,1.90395981e-01,2.82999903e-01,7.14557409e-01,1.70725155e+01
1.33970511e+00,2.20201790e-01,3.24693292e-01,8.50424051e-01,2.10506134e+01
1.39977336e+00,2.00364961e+04,2.80514023e+04,1.87853652e+04,1.18465637e+03
1.46138775e+00,2.33662168e+04,3.26813555e+04,2.00789062e+04,1.25934302e+03
1.52458799e+00,1.56842646e+04,2.19320176e+04,1.34658604e+04,9.65081055e+02
1.58941495e+00,1.49024707e+04,2.08513828e+04,1.33828145e+04,1.19188574e+03
1.65591037e+00,1.54370176e+04,2.16065859e+04,1.42097109e+04,1.38832202e+03
1.72411728e+00,1.62984590e+04,2.28160625e+04,1.51841455e+04,1.52481201e+03
1.79407966e+00,1.66994824e+04,2.33768594e+04,1.55212314e+04,1.52622595e+03
1.86584306e+00,1.58122002e+04,2.21322188e+04,1.45598652e+04,1.39640479e+03
1.93945324e+00,1.38765156e+04,1.94216758e+04,1.27060078e+04,1.22373230e+03
2.01495814e+00,1.22285547e+04,1.71167188e+04,1.12408066e+04,1.13880908e+03
2.09240627e+00,1.19352080e+04,1.67100156e+04,1.11266787e+04,1.22083875e+03
2.17184782e+00,1.30043779e+04,1.82117539e+04,1.23529688e+04,1.46290283e+03
2.25333428e+00,1.50084395e+04,2.10214570e+04,1.44295840e+04,1.77218457e+03
2.33691788e+00,1.74880117e+04,2.44958223e+04,1.69630781e+04,2.15803125e+03
2.42265272e+00,1.98732734e+04,2.78361289e+04,1.93318066e+04,2.45315405e+03
2.51059437e+00,2.01496406e+04,2.82201680e+04,1.95038047e+04,2.44848877e+03
2.60079956e+00,1.84747852e+04,2.58749863e+04,1.79113418e+04,2.24619092e+03
2.69332647e+00,1.69240918e+04,2.37035762e+04,1.63721367e+04,1.99306738e+03
2.78823495e+00,1.51748848e+04,2.12516953e+04,1.45542158e+04,1.70916174e+03
2.88558602e+00,1.41547432e+04,1.98247363e+04,1.36412520e+04,1.64096655e+03
2.98544264e+00,1.53947344e+04,2.15636992e+04,1.49106738e+04,1.81066675e+03
3.08786964e+00,1.77820332e+04,2.49074414e+04,1.71727305e+04,2.04879053e+03
3.19293284e+00,1.82672148e+04,2.55836738e+04,1.74994492e+04,2.04288770e+03
3.30070019e+00,1.79197930e+04,2.50956973e+04,1.71202324e+04,2.01472803e+03
3.41124129e+00,1.75369766e+04,2.45580195e+04,1.66933301e+04,1.96454810e+03
3.52462745e+00,1.61596230e+04,2.26277266e+04,1.53321709e+04,1.82257251e+03
3.64093208e+00,1.40507363e+04,1.96751230e+04,1.33648027e+04,1.62637805e+03
3.76023054e+00,1.30225020e+04,1.82382246e+04,1.25046055e+04,1.56842749e+03
3.88259912e+00,1.30442100e+04,1.82686328e+04,1.25228262e+04,1.53927124e+03
4.00811720e+00,1.25590498e+04,1.75897324e+04,1.21046729e+04,1.52580237e+03
4.13686609e+00,1.31902617e+04,1.84775391e+04,1.28717744e+04,1.67052686e+03
4.26892853e+00,1.54445195e+04,2.16365586e+04,1.50981826e+04,1.93612097e+03
4.40439081e+00,1.65784785e+04,2.32229531e+04,1.61261094e+04,2.02476050e+03
4.54333878e+00,1.64920117e+04,2.31010508e+04,1.60252627e+04,2.02238452e+03
4.68586397e+00,1.64192734e+04,2.29977773e+04,1.58934814e+04,1.97722900e+03
4.83205652e+00,1.55324824e+04,2.17533027e+04,1.49282939e+04,1.81469946e+03
4.98201227e+00,1.40045693e+04,1.96121504e+04,1.33948945e+04,1.59772632e+03
5.13582754e+00,1.36856738e+04,1.91649336e+04,1.30489717e+04,1.52702625e+03
5.29360199e+00,1.40595664e+04,1.96861035e+04,1.33208223e+04,1.52730896e+03
5.45543718e+00,1.39615801e+04,1.95488164e+04,1.32512051e+04,1.55521973e+03
5.62143755e+00,1.47023301e+04,2.05878047e+04,1.40167949e+04,1.66782788e+03
5.79171038e+00,1.50026152e+04,2.10073535e+04,1.42553486e+04,1.67899097e+03
5.96636629e+00,1.37848008e+04,1.93021270e+04,1.31147695e+04,1.59593335e+03
6.14551687e+00,1.28951709e+04,1.80581270e+04,1.23462852e+04,1.56715662e+03
6.32927942e+00,1.16877939e+04,1.63683115e+04,1.12365176e+04,1.44679297e+03
6.51777077e+00,1.04301719e+04,1.46069209e+04,1.00298838e+04,1.28100110e+03
6.71111441e+00,1.00852881e+04,1.41230127e+04,9.67139453e+03,1.20156250e+03
6.90943432e+00,1.02813613e+04,1.43966025e+04,9.83272559e+03,1.20682153e+03
7.11285782e+00,1.06841191e+04,1.49602129e+04,1.02091201e+04,1.22833667e+03
7.32151794e+00,1.09856045e+04,1.53811816e+04,1.04538340e+04,1.23762488e+03
7.53554821e+00,1.05366514e+04,1.47516738e+04,9.99549512e+03,1.16232544e+03
7.75508738e+00,9.56085840e+03,1.33852441e+04,9.06121680e+03,1.05402698e+03
7.98027754e+00,8.74840234e+03,1.22467178e+04,8.26351367e+03,9.58734558e+02
8.21126270e+00,8.64982129e+03,1.21076211e+04,8.15227686e+03,9.50620911e+02
8.44819450e+00,9.00647852e+03,1.26065967e+04,8.49551660e+03,9.87608643e+02
8.69122219e+00,9.06913086e+03,1.26940762e+04,8.55893262e+03,9.96281433e+02
8.94050789e+00,8.15609863e+03,1.14170283e+04,7.75151904e+03,9.31759949e+02
9.19620800e+00,6.91483398e+03,9.68162109e+03,6.67593555e+03,8.44470215e+02
9.45849037e+00,6.55723291e+03,9.18196387e+03,6.39474219e+03,8.20931213e+02
9.72752285e+00,7.35260010e+03,1.02943818e+04,7.13885010e+03,8.89342529e+02
1.00034800e+01,8.23287012e+03,1.15257051e+04,7.96035742e+03,9.65104004e+02
1.02865391e+01,8.37827051e+03,1.17294756e+04,8.13540918e+03,9.79713989e+02
1.05768833e+01,7.72317676e+03,1.08132393e+04,7.57801318e+03,9.18780334e+02
1.08747025e+01,6.40597803e+03,8.97053320e+03,6.41031152e+03,8.02767700e+02
1.11801853e+01,5.26901611e+03,7.38082324e+03,5.43610742e+03,7.27654175e+02
1.14935322e+01,5.56806494e+03,7.80074707e+03,5.79456348e+03,8.09745117e+02
1.18149433e+01,7.10348975e+03,9.94943945e+03,7.24798633e+03,1.02049701e+03
1.21446266e+01,7.83416650e+03,1.09738779e+04,8.01411279e+03,1.20226160e+03
1.24827967e+01,8.60302637e+03,1.20525410e+04,8.82744043e+03,1.39699207e+03
1.28296700e+01,9.72614453e+03,1.36228350e+04,9.83471387e+03,1.59755542e+03
1.31854706e+01,9.70235254e+03,1.35886641e+04,9.89151660e+03,1.76490137e+03
1.35504293e+01,8.62686914e+03,1.20857637e+04,9.29205762e+03,1.89266028e+03
1.39247818e+01,8.29437891e+03,1.16284902e+04,1.00499082e+04,1.97460913e+03
1.43087692e+01,8.49856055e+03,1.19550430e+04,1.28295156e+04,2.07688135e+03
1.47026405e+01,1.08888496e+04,1.53678926e+04,1.79894062e+04,2.29595288e+03
1.51066484e+01,1.67570605e+04,2.36203516e+04,2.29771152e+04,2.53267139e+03
1.55210552e+01,2.23097754e+04,3.14079648e+04,2.59540117e+04,2.77940039e+03
1.59461288e+01,2.51008320e+04,3.53442969e+04,2.64861289e+04,2.85953418e+03
1.63821430e+01,2.75932207e+04,3.87976406e+04,2.65765664e+04,2.81814014e+03
1.68293781e+01,3.16645391e+04,4.44034922e+04,2.77640547e+04,2.61200903e+03
1.72881241e+01,3.41528047e+04,4.77917500e+04,2.76166445e+04,2.22218799e+03
1.77586803e+01,3.45197109e+04,4.81994258e+04,2.59475625e+04,1.80679614e+03
1.82413464e+01,3.19428750e+04,4.44794688e+04,2.14512695e+04,1.52422461e+03
1.87364349e+01,2.74843184e+04,3.81948398e+04,1.75860742e+04,1.45850488e+03
1.92442665e+01,2.54897051e+04,3.54307227e+04,1.79540605e+04,1.65478540e+03
1.97651691e+01,2.42288750e+04,3.37164688e+04,1.84461660e+04,1.67072046e+03
2.02994785e+01,2.16356719e+04,3.01399434e+04,1.66601914e+04,1.31888892e+03
2.08475418e+01,2.05232344e+04,2.86048672e+04,1.56488242e+04,1.13917114e+03
2.14097099e+01,1.82601641e+04,2.54260469e+04,1.32831064e+04,9.01014526e+02
2.19863453e+01,1.67796992e+04,2.33786523e+04,1.25234648e+04,8.06536560e+02
2.25778236e+01,1.50826016e+04,2.10347305e+04,1.10979297e+04,5.95533386e+02
2.31845264e+01,1.21912051e+04,1.69786836e+04,7.86527734e+03,3.84624481e+02
2.38068466e+01,8.17309668e+03,1.13612510e+04,4.72525391e+03,1.69690643e+02
2.44451809e+01,3.74423120e+03,5.18415234e+03,1.66370605e+03,1.65987148e+01
2.50999470e+01,8.36167358e+02,1.14657788e+03,1.81079742e+02,1.98649913e-01
2.57715645e+01,1.44976685e+02,1.97348206e+02,2.89732151e+01,4.73817363e-02
2.64604683e+01,1.39309357e+02,1.90146942e+02,1.92730618e+01,5.96964557e-04
2.71671047e+01,1.71064972e+02,2.32908447e+02,1.88848133e+01,2.93615449e-04
2.78919277e+01,6.98960571e+01,9.46803436e+01,5.20658398e+00,1.21277744e-05
2.86354065e+01,9.38133430e+00,1.24990597e+01,3.72892201e-01,5.51991025e-06
2.93980217e+01,1.08408308e+00,1.40945673e+00,1.24039985e-02,3.77858214e-06
3.01802654e+01,3.33978206e-01,4.28904444e-01,5.78200910e-03,2.08924212e-06
3.09826431e+01,7.22509846e-02,9.00640115e-02,3.95938659e-05,4.45013569e-07
3.18056717e+01,1.49750207e-02,1.82297323e-02,1.95782231e-05,8.76944384e-08
3.26498833e+01,3.35137872e-03,4.02836874e-03,5.19320338e-06,2.19323528e-08
3.35158234e+01,7.39799580e-04,8.77352140e-04,1.71154647e-06,4.62194150e-09
3.44040565e+01,1.04738952e-04,1.22468758e-04,3.26798869e-07,5.82840110e-10
3.53151436e+01,9.47476292e-06,1.09299963e-05,4.80416809e-08,7.00793035e-11
3.62496834e+01,7.50326194e-07,8.62923741e-07,6.18516349e-09,7.29817422e-12
3.72082787e+01,4.37787975e-08,4.99276425e-08,4.69040917e-10,4.36898456e-13
3.81915474e+01,2.14806217e-09,2.38671993e-09,2.22591234e-11,2.11508396e-14
3.92001228e+01,7.35256925e-11,8.09690509e-11,6.39422760e-13,6.83372788e-16
4.02346535e+01,1.59076333e-12,1.77929318e-12,1.07759667e-14,1.08636773e-17
4.12958107e+01,1.97911908e-14,2.37162635e-14,9.20173978e-17,1.08083005e-19
4.23842850e+01,1.37503742e-16,1.93889574e-16,2.17001244e-19,5.87059078e-22
4.35007744e+01,9.78191481e-20,1.14188716e-19,1.94672870e-20,3.39218472e-24
4.46459999e+01,2.92496978e-20,3.55870806e-20,7.91791602e-24,1.78961478e-26
4.58207016e+01,1.15942934e-21,2.13762898e-21,8.82134833e-25,4.16517017e-28
4.70256386e+01,1.90947726e-24,2.00724435e-24,5.02930528e-27,1.40692822e-30
4.82615852e+01,1.16557835e-25,1.78563522e-25,3.70997615e-28,4.56832652e-31
4.95293465e+01,9.44611823e-29,1.78615534e-28,2.33627715e-30,2.57311360e-33
5.08297386e+01,1.58438553e-29,2.65555045e-29,1.20554528e-31,1.28776566e-34
5.21635971e+01,6.50932160e-31,8.94278486e-31,5.29604580e-33,3.27570471e-36
5.35317917e+01,1.70073932e-32,2.16998887e-32,1.27899847e-34,6.63682979e-38
5.49351997e+01,4.60564151e-34,6.46348875e-34,3.59988939e-36,1.73200490e-39
5.63747253e+01,9.69250122e-36,1.14785431e-35,8.77451059e-38,4.34402524e-41
5.78513031e+01,3.36383086e-37,4.85177150e-37,2.92871379e-39,0.00000000e+00
5.93278885e+01,7.55580132e-39,9.58348020e-39,6.72623263e-41,0.00000000e+00
6.08044662e+01,3.01279170e-40,4.30198629e-40,2.80259693e-42,0.00000000e+00
6.22810478e+01,2.80259693e-42,5.60519386e-42,0.00000000e+00,0.00000000e+00
6.37576256e+01,0.00000000e+00,0.00000000e+00,0.00000000e+00,0.00000000e+00
6.52341995e+01,0.00000000e+00,0.00000000e+00,0.00000000e+00,0.00000000e+00
6.67107849e+01,0.00000000e+00,0.00000000e+00,0.00000000e+00,0.00000000e+00
6.81873703e+01,0.00000000e+00,0.00000000e+00,0.00000000e+00,0.00000000e+00
6.96639481e+01,0.00000000e+00,0.00000000e+00,0.00000000e+00,0.00000000e+00
7.11405258e+01,0.00000000e+00,0.00000000e+00,0.00000000e+00,0.00000000e+00
7.26171036e+01,0.00000000e+00,0.00000000e+00,0.00000000e+00,0.00000000e+00
7.40936813e+01,0.00000000e+00,0.00000000e+00,0.00000000e+00,0.00000000e+00
7.55702591e+01,0.00000000e+00,0.00000000e+00,0.00000000e+00,0.00000000e+00
7.70468445e+01,0.00000000e+00,0.00000000e+00,0.00000000e+00,0.00000000e+00
7.85234222e+01,0.00000000e+00,0.00000000e+00,0.00000000e+00,0.00000000e+00
8.00000000e+01,0.00000000e+00,0.00000000e+00,0.00000000e+00,0.00000000e+00
