Height (km), 7_8 um ash conc (g/kg), 15_6 um ash conc (g/kg), 125 um ash conc (g/kg), 1 mm ash conc (g/kg)
0.00000000e+00,0.00000000e+00,0.00000000e+00,0.00000000e+00,0.00000000e+00
3.99999991e-02,5.07820630e-09,6.62564936e-09,5.55101067e-08,3.44116092e+00
7.99999982e-02,1.97550971e-08,2.74442442e-08,4.57745227e-06,3.83524680e+00
1.19999997e-01,4.47394015e-08,6.37326849e-08,1.99911246e-05,3.81591845e+00
1.59999996e-01,1.01870093e-07,1.48564112e-07,1.16857824e-04,4.37466621e+00
2.00000003e-01,2.48622371e-07,3.67516662e-07,1.05555740e-03,4.45140505e+00
2.39999995e-01,6.60014280e-07,9.91032380e-07,3.40381777e-03,4.64314318e+00
2.80000001e-01,1.35239361e-06,2.01071271e-06,8.59826524e-03,4.97080088e+00
3.19999993e-01,3.53348514e-06,5.18680235e-06,1.54380612e-02,5.06623554e+00
3.60000014e-01,7.40723726e-06,1.06891366e-05,2.40854844e-02,5.80600309e+00
4.00000006e-01,1.45108534e-05,2.07250741e-05,3.40122543e-02,5.96918678e+00
4.39999998e-01,3.29644281e-05,4.57758142e-05,4.47912253e-02,6.32208014e+00
4.79999989e-01,6.25523826e-05,8.53860911e-05,5.57746850e-02,7.18116188e+00
5.19999981e-01,1.04231112e-04,1.39918149e-04,6.97717741e-02,7.30708456e+00
5.60000002e-01,1.57046801e-04,2.08538389e-04,7.63569623e-02,8.09291363e+00
6.00000024e-01,2.33998115e-04,3.07965907e-04,8.84150788e-02,8.49545479e+00
6.41029537e-01,3.06800648e-04,4.05129162e-04,1.00595124e-01,9.17760468e+00
6.83115125e-01,3.84522951e-04,5.16642351e-04,1.19166628e-01,1.03293705e+01
7.26283848e-01,5.46360156e-04,7.56768044e-04,1.54441446e-01,1.07657633e+01
7.70563781e-01,7.42301636e-04,1.06728461e-03,1.94210753e-01,1.13923101e+01
8.15983355e-01,1.28455670e-03,1.93960231e-03,2.54283428e-01,1.20377827e+01
8.62571895e-01,2.55603553e-03,4.03089263e-03,3.47631663e-01,1.24024668e+01
9.10359621e-01,6.01881463e-03,9.56283882e-03,5.05867064e-01,1.34895868e+01
9.59377348e-01,1.98898427e-02,3.13797109e-02,7.58941054e-01,1.40054474e+01
1.00965667e+00,4.89016734e-02,7.64480829e-02,1.09148920e+00,1.41433115e+01
1.06123006e+00,1.09272093e-01,1.68866426e-01,1.53007960e+00,1.57369900e+01
1.11413085e+00,1.95049658e-01,2.98501253e-01,1.96591973e+00,1.60747528e+01
1.16839325e+00,3.04992020e-01,4.63405192e-01,2.52101707e+00,1.80112476e+01
1.22405231e+00,4.66721117e-01,7.03916311e-01,3.17201781e+00,1.77748604e+01
1.28114390e+00,7.07536697e-01,1.05783725e+00,3.85441542e+00,2.00582409e+01
1.33970511e+00,9.98548627e-01,1.48243713e+00,4.48077536e+00,1.89456673e+01
1.39977336e+00,2.01100059e+04,2.81694688e+04,1.98649102e+04,1.99467102e+03
1.46138775e+00,2.40654961e+04,3.36915078e+04,2.25821562e+04,1.80280920e+03
1.52458799e+00,1.42781846e+04,1.99859570e+04,1.33533037e+04,1.13691003e+03
1.58941495e+00,1.20418047e+04,1.68593945e+04,1.14510234e+04,1.09447168e+03
1.65591037e+00,1.07065293e+04,1.49923486e+04,1.03065488e+04,1.09099121e+03
1.72411728e+00,1.05704512e+04,1.48047793e+04,1.03217461e+04,1.21572461e+03
1.79407966e+00,1.17471465e+04,1.64564238e+04,1.16550254e+04,1.53735010e+03
1.86584306e+00,1.41649160e+04,1.98470449e+04,1.42583594e+04,2.04469910e+03
1.93945324e+00,1.72975820e+04,2.42385898e+04,1.75555039e+04,2.59419678e+03
2.01495814e+00,1.95912422e+04,2.74520039e+04,1.98703516e+04,2.85569775e+03
2.09240627e+00,2.00136406e+04,2.80417109e+04,2.01886543e+04,2.77033936e+03
2.17184782e+00,1.89765742e+04,2.65860801e+04,1.89992930e+04,2.47397192e+03
2.25333428e+00,1.70429453e+04,2.38748750e+04,1.69402910e+04,2.10962427e+03
2.33691788e+00,1.51464473e+04,2.12169316e+04,1.49793496e+04,1.80585571e+03
2.42265272e+00,1.37017783e+04,1.91923496e+04,1.34832969e+04,1.58241467e+03
2.51059437e+00,1.25265107e+04,1.75455586e+04,1.22814180e+04,1.43271460e+03
2.60079956e+00,1.19325156e+04,1.67141562e+04,1.17187832e+04,1.41035535e+03
2.69332647e+00,1.25722168e+04,1.76118281e+04,1.24202090e+04,1.56859412e+03
2.78823495e+00,1.36366172e+04,1.91032812e+04,1.34893799e+04,1.72733545e+03
2.88558602e+00,1.41807539e+04,1.98659727e+04,1.40594277e+04,1.84295667e+03
2.98544264e+00,1.49746836e+04,2.09780664e+04,1.48512441e+04,1.94656641e+03
3.08786964e+00,1.46092148e+04,2.04651191e+04,1.44492637e+04,1.88574097e+03
3.19293284e+00,1.31644424e+04,1.84415391e+04,1.30375098e+04,1.73881848e+03
3.30070019e+00,1.17886230e+04,1.65151133e+04,1.17175537e+04,1.61440625e+03
3.41124129e+00,1.06348242e+04,1.49000762e+04,1.06322148e+04,1.52145386e+03
3.52462745e+00,1.05058027e+04,1.47211143e+04,1.05827949e+04,1.56601965e+03
3.64093208e+00,1.13734453e+04,1.59371680e+04,1.14764258e+04,1.70219580e+03
3.76023054e+00,1.21783672e+04,1.70659980e+04,1.23480254e+04,1.88689941e+03
3.88259912e+00,1.57310596e+04,2.20467188e+04,1.60672285e+04,2.51025342e+03
4.00811720e+00,2.00479414e+04,2.80938789e+04,2.03708613e+04,3.07228540e+03
4.13686609e+00,1.98772246e+04,2.78548789e+04,2.02404277e+04,3.11185840e+03
4.26892853e+00,2.49713086e+04,3.49941680e+04,2.54752637e+04,3.89793481e+03
4.40439081e+00,2.93470664e+04,4.11216367e+04,2.97181406e+04,4.29259912e+03
4.54333878e+00,2.38288242e+04,3.33831758e+04,2.38421973e+04,3.18135010e+03
4.68586397e+00,1.50244463e+04,2.10472676e+04,1.49496025e+04,1.94253149e+03
4.83205652e+00,1.24640957e+04,1.74618535e+04,1.24199482e+04,1.62914197e+03
4.98201227e+00,1.23433887e+04,1.72921777e+04,1.22904541e+04,1.63702148e+03
5.13582754e+00,1.29202617e+04,1.81027949e+04,1.29964502e+04,1.86071179e+03
5.29360199e+00,1.54349971e+04,2.16270039e+04,1.55470820e+04,2.21084229e+03
5.45543718e+00,1.68126934e+04,2.35523926e+04,1.67003965e+04,2.18348511e+03
5.62143755e+00,1.52896748e+04,2.14217070e+04,1.52915889e+04,2.12947705e+03
5.79171038e+00,1.88615723e+04,2.64305781e+04,1.90084570e+04,2.77158594e+03
5.96636629e+00,1.96883184e+04,2.75831641e+04,1.96263418e+04,2.69421265e+03
6.14551687e+00,1.09430615e+04,1.53281123e+04,1.08175010e+04,1.43206592e+03
6.32927942e+00,6.63615967e+03,9.29578809e+03,6.58118994e+03,8.88304565e+02
6.51777077e+00,7.40246826e+03,1.03698799e+04,7.37282812e+03,1.01100500e+03
6.71111441e+00,8.81247754e+03,1.23463242e+04,8.83308789e+03,1.23931714e+03
6.90943432e+00,9.18021484e+03,1.28617891e+04,9.21486719e+03,1.29117932e+03
7.11285782e+00,8.28672559e+03,1.16094824e+04,8.30320312e+03,1.16020386e+03
7.32151794e+00,6.95774805e+03,9.74875098e+03,7.01436035e+03,1.02108490e+03
7.53554821e+00,6.06437939e+03,8.49755957e+03,6.13445947e+03,9.07530884e+02
7.75508738e+00,5.86847119e+03,8.22177539e+03,5.89442285e+03,8.36313110e+02
7.98027754e+00,6.57291846e+03,9.20750781e+03,6.56260742e+03,8.91222778e+02
8.21126270e+00,7.60525293e+03,1.06539521e+04,7.60636670e+03,1.02790344e+03
8.44819450e+00,7.86649951e+03,1.10209990e+04,7.91341895e+03,1.08531665e+03
8.69122219e+00,7.14998389e+03,1.00196191e+04,7.28469043e+03,1.03561755e+03
8.94050789e+00,7.05459717e+03,9.88717188e+03,7.21816699e+03,1.05280542e+03
9.19620800e+00,7.33500732e+03,1.02785273e+04,7.47693164e+03,1.05994995e+03
9.45849037e+00,5.41547852e+03,7.58832324e+03,5.55205615e+03,7.59348389e+02
9.72752285e+00,3.07055566e+03,4.30496387e+03,3.29513257e+03,4.69397644e+02
1.00034800e+01,2.64964771e+03,3.71654541e+03,2.93530664e+03,4.27756500e+02
1.02865391e+01,2.85667920e+03,4.00823022e+03,3.21748901e+03,4.80105927e+02
1.05768833e+01,3.35528418e+03,4.70946680e+03,3.81032495e+03,5.66743164e+02
1.08747025e+01,3.80715991e+03,5.34522705e+03,4.32595654e+03,6.28004944e+02
1.11801853e+01,4.22457812e+03,5.93414941e+03,4.77440430e+03,6.98069031e+02
1.14935322e+01,5.10758252e+03,7.17357715e+03,5.63173438e+03,8.30642639e+02
1.18149433e+01,5.84484180e+03,8.20634863e+03,6.31479785e+03,9.23096680e+02
1.21446266e+01,5.56149951e+03,7.80950879e+03,5.90589111e+03,8.55781311e+02
1.24827967e+01,5.08633691e+03,7.13846289e+03,5.25780908e+03,7.69900085e+02
1.28296700e+01,5.37614502e+03,7.53700635e+03,5.48130322e+03,7.79697815e+02
1.31854706e+01,6.03616650e+03,8.45826465e+03,6.07806152e+03,8.20001221e+02
1.35504293e+01,6.06740527e+03,8.50056250e+03,5.99875977e+03,8.15149597e+02
1.39247818e+01,5.48509326e+03,7.68141406e+03,5.30882715e+03,7.35715515e+02
1.43087692e+01,4.88415381e+03,6.83606201e+03,4.71022070e+03,6.16480957e+02
1.47026405e+01,4.76076758e+03,6.66184277e+03,4.59933740e+03,5.35859863e+02
1.51066484e+01,4.90871875e+03,6.86799854e+03,4.63259131e+03,4.90124664e+02
1.55210552e+01,4.91513770e+03,6.87447656e+03,4.45945068e+03,4.44719299e+02
1.59461288e+01,4.61041016e+03,6.44379932e+03,4.06222754e+03,4.08326294e+02
1.63821430e+01,4.17176807e+03,5.83122900e+03,3.75382446e+03,3.89916901e+02
1.68293781e+01,3.98628687e+03,5.57404395e+03,3.63908569e+03,3.59072083e+02
1.72881241e+01,3.70458960e+03,5.17921875e+03,3.33348975e+03,2.88456848e+02
1.77586803e+01,3.13988745e+03,4.38876514e+03,2.78455518e+03,2.40611237e+02
1.82413464e+01,2.84678784e+03,3.98088501e+03,2.59462183e+03,2.41683777e+02
1.87364349e+01,2.73718774e+03,3.82850073e+03,2.50155127e+03,2.11548157e+02
1.92442665e+01,2.02711353e+03,2.83377246e+03,1.77704456e+03,1.23053864e+02
1.97651691e+01,1.08885498e+03,1.52080835e+03,9.00030273e+02,4.86753578e+01
2.02994785e+01,4.59534912e+02,6.41312622e+02,3.60404877e+02,1.40403357e+01
2.08475418e+01,1.02679062e+02,1.42677170e+02,6.02456017e+01,2.98341364e-01
2.14097099e+01,1.67807178e+01,2.30767078e+01,4.64329433e+00,7.71981315e-04
2.19863453e+01,8.64166546e+00,1.18722477e+01,2.27473164e+00,2.81169312e-04
2.25778236e+01,3.85491371e+00,5.28598213e+00,8.81389618e-01,1.44138452e-04
2.31845264e+01,1.28919899e+00,1.76194429e+00,2.35326961e-01,3.79036987e-06
2.38068466e+01,2.94859052e-01,4.00698155e-01,3.86993699e-02,7.81886115e-07
2.44451809e+01,5.60988300e-02,7.56807923e-02,4.90538497e-03,1.95390498e-07
2.50999470e+01,9.52801574e-03,1.26903066e-02,2.88942392e-04,3.91283308e-08
2.57715645e+01,1.30082876e-03,1.70479063e-03,1.10159253e-05,6.61312960e-09
2.64604683e+01,2.19409587e-04,2.86181748e-04,1.37156132e-06,1.10994369e-09
2.71671047e+01,4.43982244e-05,5.77641258e-05,3.59355909e-07,2.07682788e-10
2.78919277e+01,6.98176473e-06,9.04183707e-06,6.52416503e-08,3.50294446e-11
2.86354065e+01,8.07991285e-07,1.04082153e-06,8.36887626e-09,3.73941936e-12
2.93980217e+01,8.14735159e-08,1.05373672e-07,7.05004444e-10,4.33538459e-13
3.01802654e+01,5.46229106e-09,7.04288761e-09,6.49348630e-11,3.77770189e-14
3.09826431e+01,3.93072019e-10,5.08898701e-10,7.28798012e-12,3.38063555e-15
3.18056717e+01,1.69883101e-11,2.20623606e-11,3.84492161e-13,1.81558693e-16
3.26498833e+01,6.14071511e-13,7.95874000e-13,1.65710222e-14,4.82150220e-18
3.35158234e+01,4.45567824e-14,5.75505830e-14,2.29769185e-15,3.10796908e-19
3.44040565e+01,1.63739685e-15,2.10220385e-15,6.13541367e-17,1.10990804e-20
3.53151436e+01,1.08298245e-16,1.40427819e-16,5.38300346e-19,9.04107097e-22
3.62496834e+01,3.95543459e-18,5.16629341e-18,3.83199303e-20,5.84765991e-23
3.72082787e+01,6.19749241e-20,8.21492906e-20,2.11326168e-21,2.92733463e-24
3.81915474e+01,1.96794378e-22,3.11019759e-22,1.04532766e-22,1.51279264e-25
3.92001228e+01,1.00946357e-23,1.54994744e-23,2.94199305e-24,5.15710999e-27
4.02346535e+01,1.60733343e-25,2.44525680e-25,5.90685118e-26,1.08735669e-28
4.12958107e+01,2.68943454e-28,3.80276119e-28,9.54081043e-28,1.37402867e-30
4.23842850e+01,2.42124640e-30,3.52750056e-30,1.11271784e-29,7.47221057e-33
4.35007744e+01,3.30443775e-32,6.09140937e-32,1.68715927e-32,4.18244764e-35
4.46459999e+01,1.49664308e-34,3.85722262e-34,2.59820435e-34,5.52616107e-37
4.58207016e+01,1.59155273e-36,2.60857435e-36,5.36985957e-37,5.50710296e-40
4.70256386e+01,3.54962914e-38,4.96325903e-38,1.59187506e-39,4.20389539e-42
4.82615852e+01,1.24715563e-40,3.44719422e-40,4.34402524e-41,0.00000000e+00
4.95293465e+01,0.00000000e+00,2.80259693e-42,0.00000000e+00,0.00000000e+00
5.08297386e+01,0.00000000e+00,0.00000000e+00,0.00000000e+00,0.00000000e+00
5.21635971e+01,0.00000000e+00,0.00000000e+00,0.00000000e+00,0.00000000e+00
5.35317917e+01,0.00000000e+00,0.00000000e+00,0.00000000e+00,0.00000000e+00
5.49351997e+01,0.00000000e+00,0.00000000e+00,0.00000000e+00,0.00000000e+00
5.63747253e+01,0.00000000e+00,0.00000000e+00,0.00000000e+00,0.00000000e+00
5.78513031e+01,0.00000000e+00,0.00000000e+00,0.00000000e+00,0.00000000e+00
5.93278885e+01,0.00000000e+00,0.00000000e+00,0.00000000e+00,0.00000000e+00
6.08044662e+01,0.00000000e+00,0.00000000e+00,0.00000000e+00,0.00000000e+00
6.22810478e+01,0.00000000e+00,0.00000000e+00,0.00000000e+00,0.00000000e+00
6.37576256e+01,0.00000000e+00,0.00000000e+00,0.00000000e+00,0.00000000e+00
6.52341995e+01,0.00000000e+00,0.00000000e+00,0.00000000e+00,0.00000000e+00
6.67107849e+01,0.00000000e+00,0.00000000e+00,0.00000000e+00,0.00000000e+00
6.81873703e+01,0.00000000e+00,0.00000000e+00,0.00000000e+00,0.00000000e+00
6.96639481e+01,0.00000000e+00,0.00000000e+00,0.00000000e+00,0.00000000e+00
7.11405258e+01,0.00000000e+00,0.00000000e+00,0.00000000e+00,0.00000000e+00
7.26171036e+01,0.00000000e+00,0.00000000e+00,0.00000000e+00,0.00000000e+00
7.40936813e+01,0.00000000e+00,0.00000000e+00,0.00000000e+00,0.00000000e+00
7.55702591e+01,0.00000000e+00,0.00000000e+00,0.00000000e+00,0.00000000e+00
7.70468445e+01,0.00000000e+00,0.00000000e+00,0.00000000e+00,0.00000000e+00
7.85234222e+01,0.00000000e+00,0.00000000e+00,0.00000000e+00,0.00000000e+00
8.00000000e+01,0.00000000e+00,0.00000000e+00,0.00000000e+00,0.00000000e+00
