Height (km), 7_8 um ash conc (g/kg), 15_6 um ash conc (g/kg), 125 um ash conc (g/kg), 1 mm ash conc (g/kg)
0.00000000e+00,0.00000000e+00,0.00000000e+00,0.00000000e+00,0.00000000e+00
3.99999991e-02,4.53926942e-18,7.64246313e-18,5.54589391e-01,1.07405357e+01
7.99999982e-02,5.65498783e-16,7.78919905e-16,6.99189544e-01,1.19107513e+01
1.19999997e-01,4.48958565e-14,7.97927534e-14,8.30920815e-01,1.26334333e+01
1.59999996e-01,1.87883671e-12,4.44423014e-12,9.73323882e-01,1.45075874e+01
2.00000003e-01,2.71200545e-11,4.58896462e-11,1.32387710e+00,1.44836359e+01
2.39999995e-01,2.14361459e-10,4.04066752e-10,1.36804914e+00,1.61939297e+01
2.80000001e-01,4.91200902e-09,1.24709150e-08,1.41943955e+00,1.69989758e+01
3.19999993e-01,1.16056157e-07,3.27119693e-07,2.14796495e+00,1.87687893e+01
3.60000014e-01,1.06189100e-06,3.02201215e-06,2.26165366e+00,2.08462982e+01
4.00000006e-01,4.48405763e-06,1.23132431e-05,3.01229477e+00,2.11919537e+01
4.39999998e-01,1.47913470e-05,4.38787501e-05,3.34352493e+00,2.20769463e+01
4.79999989e-01,4.73757063e-05,1.24734550e-04,3.74702740e+00,2.53928928e+01
5.19999981e-01,1.40276898e-04,3.25207599e-04,4.06567097e+00,2.55624428e+01
5.60000002e-01,4.19110234e-04,8.96857644e-04,4.17757893e+00,2.85701904e+01
6.00000024e-01,9.41172242e-04,1.85561622e-03,4.63592720e+00,2.62708206e+01
6.41029537e-01,2.04802980e-03,4.16825898e-03,4.51982403e+00,3.36886253e+01
6.83115125e-01,3.80576868e-03,7.59442011e-03,4.78520441e+00,2.74759903e+01
7.26283848e-01,7.08780158e-03,1.40394140e-02,4.74330521e+00,4.01563873e+01
7.70563781e-01,1.17306150e-02,2.29250249e-02,5.02358246e+00,3.42379494e+01
8.15983355e-01,1.94429439e-02,3.62231582e-02,4.96755075e+00,4.39602432e+01
8.62571895e-01,2.87422370e-02,5.16278371e-02,5.04981375e+00,4.16763649e+01
9.10359621e-01,4.24223021e-02,7.33984634e-02,5.40656471e+00,5.04333725e+01
9.59377348e-01,6.17398545e-02,1.05507948e-01,5.60295773e+00,4.74252777e+01
1.00965667e+00,9.83494595e-02,1.64095029e-01,6.04535866e+00,6.12146263e+01
1.06123006e+00,1.50079563e-01,2.44631484e-01,6.49636841e+00,5.68202667e+01
1.11413085e+00,2.21250713e-01,3.55597734e-01,7.01196718e+00,6.26108284e+01
1.16839325e+00,3.33034426e-01,5.29246092e-01,7.51969719e+00,6.61465454e+01
1.22405231e+00,4.82320696e-01,7.57641673e-01,8.13005638e+00,7.40450439e+01
1.28114390e+00,6.74421549e-01,1.04436040e+00,9.18358326e+00,7.33361511e+01
1.33970511e+00,9.62552369e-01,1.47393286e+00,1.09540405e+01,8.57255783e+01
1.39977336e+00,2.07037461e+04,2.89884062e+04,1.95756445e+04,1.41234106e+03
1.46138775e+00,2.69245352e+04,3.76526328e+04,2.27835039e+04,1.48158948e+03
1.52458799e+00,1.61998125e+04,2.26511211e+04,1.39598037e+04,1.09783594e+03
1.58941495e+00,1.57935146e+04,2.20992773e+04,1.43220459e+04,1.39822571e+03
1.65591037e+00,1.63661074e+04,2.29076250e+04,1.51437656e+04,1.55316418e+03
1.72411728e+00,1.67077578e+04,2.33875625e+04,1.55208203e+04,1.59214087e+03
1.79407966e+00,1.62754043e+04,2.27810391e+04,1.50386055e+04,1.51571533e+03
1.86584306e+00,1.51419277e+04,2.11924922e+04,1.38852900e+04,1.38441663e+03
1.93945324e+00,1.37426729e+04,1.92331504e+04,1.25529863e+04,1.29324512e+03
2.01495814e+00,1.25034844e+04,1.74995488e+04,1.14498984e+04,1.23411548e+03
2.09240627e+00,1.17570078e+04,1.64567500e+04,1.08515723e+04,1.24960193e+03
2.17184782e+00,1.15671562e+04,1.61940254e+04,1.08146504e+04,1.35115674e+03
2.25333428e+00,1.19644277e+04,1.67546211e+04,1.14005654e+04,1.52637598e+03
2.33691788e+00,1.33693457e+04,1.87270605e+04,1.30080186e+04,1.88038550e+03
2.42265272e+00,1.55260215e+04,2.17519766e+04,1.53490000e+04,2.29458838e+03
2.51059437e+00,1.75923418e+04,2.46491523e+04,1.75643477e+04,2.67248804e+03
2.60079956e+00,1.91301719e+04,2.68051484e+04,1.92139219e+04,2.90482349e+03
2.69332647e+00,2.01616680e+04,2.82499531e+04,2.02453242e+04,2.99901050e+03
2.78823495e+00,2.01564551e+04,2.82400781e+04,2.01147832e+04,2.85187744e+03
2.88558602e+00,1.94208496e+04,2.72073359e+04,1.92520352e+04,2.62806372e+03
2.98544264e+00,1.90525312e+04,2.66895195e+04,1.87455996e+04,2.43964624e+03
3.08786964e+00,1.88965898e+04,2.64688047e+04,1.84303711e+04,2.32128271e+03
3.19293284e+00,1.96789219e+04,2.75645801e+04,1.91458398e+04,2.38244995e+03
3.30070019e+00,2.13269922e+04,2.98705508e+04,2.05609785e+04,2.45927637e+03
3.41124129e+00,2.16542539e+04,3.03235352e+04,2.06260781e+04,2.41499854e+03
3.52462745e+00,2.18236719e+04,3.05590996e+04,2.06993770e+04,2.37666626e+03
3.64093208e+00,2.09834902e+04,2.93770820e+04,1.96074180e+04,2.16695752e+03
3.76023054e+00,1.78865781e+04,2.50371211e+04,1.64897734e+04,1.81819104e+03
3.88259912e+00,1.42300303e+04,1.99219297e+04,1.32190273e+04,1.59050818e+03
4.00811720e+00,1.43133477e+04,2.00447129e+04,1.35301914e+04,1.70752283e+03
4.13686609e+00,1.44468252e+04,2.02307910e+04,1.36747305e+04,1.74553723e+03
4.26892853e+00,1.42717617e+04,1.99935742e+04,1.39357002e+04,2.00701453e+03
4.40439081e+00,1.82028281e+04,2.55048203e+04,1.79708301e+04,2.57160596e+03
4.54333878e+00,2.00555273e+04,2.80930996e+04,1.94967754e+04,2.66801465e+03
4.68586397e+00,1.79389531e+04,2.51327422e+04,1.76806113e+04,2.61265479e+03
4.83205652e+00,2.05831426e+04,2.88414824e+04,2.05078887e+04,3.12719727e+03
4.98201227e+00,2.16675723e+04,3.03593008e+04,2.15685625e+04,3.15791846e+03
5.13582754e+00,1.83529082e+04,2.57130020e+04,1.81627070e+04,2.49065063e+03
5.29360199e+00,1.60050156e+04,2.24149395e+04,1.54629912e+04,1.92955762e+03
5.45543718e+00,1.32572695e+04,1.85658027e+04,1.28077676e+04,1.68040405e+03
5.62143755e+00,1.44106133e+04,2.01866895e+04,1.41222617e+04,1.90312891e+03
5.79171038e+00,1.84405410e+04,2.58244160e+04,1.76738301e+04,2.09453076e+03
5.96636629e+00,1.80270039e+04,2.52401836e+04,1.70558418e+04,1.98508728e+03
6.14551687e+00,1.73229082e+04,2.42531387e+04,1.63129863e+04,1.95059692e+03
6.32927942e+00,1.45477686e+04,2.03654238e+04,1.35944619e+04,1.65940259e+03
6.51777077e+00,1.11134912e+04,1.55577158e+04,1.03871592e+04,1.31179626e+03
6.71111441e+00,1.05839336e+04,1.48165059e+04,9.91229102e+03,1.24611047e+03
6.90943432e+00,1.14913779e+04,1.60880156e+04,1.08440430e+04,1.37239038e+03
7.11285782e+00,1.20157695e+04,1.68263828e+04,1.15286162e+04,1.50214685e+03
7.32151794e+00,1.17993330e+04,1.65246055e+04,1.13855781e+04,1.51101892e+03
7.53554821e+00,1.02094561e+04,1.42984766e+04,9.89958984e+03,1.36133801e+03
7.75508738e+00,8.65594922e+03,1.21257051e+04,8.53252930e+03,1.26821265e+03
7.98027754e+00,7.78724756e+03,1.09116533e+04,7.80885596e+03,1.19157373e+03
8.21126270e+00,7.84750195e+03,1.09941602e+04,7.82586572e+03,1.14677795e+03
8.44819450e+00,8.88043164e+03,1.24349258e+04,8.62744238e+03,1.11251221e+03
8.69122219e+00,9.00607129e+03,1.26074199e+04,8.64423340e+03,1.08148254e+03
8.94050789e+00,8.83646387e+03,1.23723184e+04,8.59933496e+03,1.10576538e+03
9.19620800e+00,8.86376465e+03,1.24127285e+04,8.73279688e+03,1.15310010e+03
9.45849037e+00,7.25754053e+03,1.01643955e+04,7.26521875e+03,9.64502197e+02
9.72752285e+00,5.00573047e+03,7.01198633e+03,5.22887744e+03,7.44291443e+02
1.00034800e+01,4.77901416e+03,6.69567432e+03,5.15184375e+03,7.23288452e+02
1.02865391e+01,5.36225586e+03,7.51095703e+03,5.79123242e+03,7.67694153e+02
1.05768833e+01,4.75554883e+03,6.66364502e+03,5.46489258e+03,7.53994080e+02
1.08747025e+01,4.46288672e+03,6.25849561e+03,5.50955908e+03,7.87831604e+02
1.11801853e+01,4.65202783e+03,6.52460498e+03,5.89987012e+03,7.96553833e+02
1.14935322e+01,4.80527197e+03,6.73968359e+03,6.23941650e+03,7.98067139e+02
1.18149433e+01,5.17439014e+03,7.26157324e+03,6.87249219e+03,8.52661438e+02
1.21446266e+01,5.82223438e+03,8.17609424e+03,7.65645508e+03,8.98702942e+02
1.24827967e+01,5.56793750e+03,7.82715283e+03,7.31854297e+03,7.99897217e+02
1.28296700e+01,4.44159082e+03,6.25690283e+03,6.10732373e+03,6.47447998e+02
1.31854706e+01,3.82321045e+03,5.39440381e+03,5.45774023e+03,5.81949402e+02
1.35504293e+01,3.80235303e+03,5.36892920e+03,5.32489844e+03,5.83884827e+02
1.39247818e+01,4.16403027e+03,5.88420752e+03,5.48537744e+03,6.08813232e+02
1.43087692e+01,4.86743457e+03,6.88081592e+03,5.82013672e+03,6.34658569e+02
1.47026405e+01,5.73454883e+03,8.09544141e+03,6.20633691e+03,6.56070496e+02
1.51066484e+01,6.71894873e+03,9.46558203e+03,6.62522217e+03,6.82407410e+02
1.55210552e+01,7.60018506e+03,1.06798047e+04,6.89912207e+03,6.88879517e+02
1.59461288e+01,7.92788818e+03,1.11207627e+04,6.85598389e+03,6.74415405e+02
1.63821430e+01,8.08171924e+03,1.13353584e+04,6.82115869e+03,6.83020081e+02
1.68293781e+01,8.48377734e+03,1.18866807e+04,7.02179883e+03,7.00135986e+02
1.72881241e+01,9.12437207e+03,1.27675498e+04,7.54674658e+03,7.58396545e+02
1.77586803e+01,9.98713867e+03,1.39696436e+04,8.35315918e+03,8.95256470e+02
1.82413464e+01,1.25908154e+04,1.76145176e+04,1.11361895e+04,1.11468274e+03
1.87364349e+01,2.00899629e+04,2.80947031e+04,1.74171797e+04,1.40658203e+03
1.92442665e+01,2.49450586e+04,3.48709570e+04,2.08496484e+04,1.65045056e+03
1.97651691e+01,2.27630117e+04,3.17964141e+04,1.82392520e+04,1.41021631e+03
2.02994785e+01,2.10693105e+04,2.93890684e+04,1.63615586e+04,9.84097534e+02
2.08475418e+01,2.01640430e+04,2.80703984e+04,1.42816279e+04,6.75512756e+02
2.14097099e+01,1.74370840e+04,2.42423477e+04,1.07732861e+04,5.11999207e+02
2.19863453e+01,1.37364463e+04,1.90667500e+04,8.45344043e+03,5.74886169e+02
2.25778236e+01,1.15216191e+04,1.60071543e+04,8.01070752e+03,6.54037048e+02
2.31845264e+01,8.78097266e+03,1.22045420e+04,6.09588330e+03,3.18567169e+02
2.38068466e+01,5.30474512e+03,7.35620068e+03,2.97030859e+03,5.37967606e+01
2.44451809e+01,2.44241797e+03,3.37108105e+03,9.95214844e+02,3.64757419e+00
2.50999470e+01,9.15330811e+02,1.25378638e+03,2.24179657e+02,9.13525745e-02
2.57715645e+01,3.96927094e+02,5.41700195e+02,7.39113770e+01,2.85068266e-02
2.64604683e+01,2.74355469e+02,3.74542297e+02,4.31579170e+01,1.67130977e-02
2.71671047e+01,2.04507599e+02,2.78924957e+02,2.60212154e+01,1.06740128e-02
2.78919277e+01,1.57372452e+02,2.13950623e+02,1.61005440e+01,4.01503313e-03
2.86354065e+01,1.27565399e+02,1.72575165e+02,8.39686203e+00,1.61588285e-03
2.93980217e+01,6.83966827e+01,9.17417526e+01,2.75944352e+00,4.60718526e-04
3.01802654e+01,3.40934372e+01,4.54521599e+01,8.17024946e-01,3.85248277e-04
3.09826431e+01,1.39096775e+01,1.83895493e+01,1.80724800e-01,1.38942967e-04
3.18056717e+01,5.05997562e+00,6.59388256e+00,1.48115739e-01,1.71797546e-05
3.26498833e+01,2.30224252e+00,3.03796291e+00,2.38665685e-01,9.39587426e-06
3.35158234e+01,1.32090163e+00,1.77325642e+00,1.79288805e-01,3.16174714e-06
3.44040565e+01,3.50877404e-01,4.68736947e-01,3.60528156e-02,9.00136854e-07
3.53151436e+01,4.55650575e-02,5.90394549e-02,1.25775638e-03,1.27936616e-07
3.62496834e+01,1.13717560e-02,1.41517008e-02,2.50073663e-06,2.76888343e-08
3.72082787e+01,2.54294020e-03,3.04596871e-03,1.45856757e-06,7.92018895e-09
3.81915474e+01,1.56026028e-04,1.73314460e-04,2.67846076e-07,1.26677002e-09
3.92001228e+01,3.08212220e-05,3.55591801e-05,5.73479966e-08,2.83554458e-10
4.02346535e+01,1.54512315e-06,1.78053665e-06,3.45982154e-09,1.08854818e-11
4.12958107e+01,5.79265240e-08,7.16204198e-08,9.20300017e-11,2.29673919e-13
4.23842850e+01,1.31519808e-08,1.60588733e-08,8.15652199e-11,1.31010044e-13
4.35007744e+01,2.04276346e-10,2.51605625e-10,8.79904656e-13,2.11565134e-15
4.46459999e+01,7.62388676e-12,9.38076439e-12,2.14137044e-14,3.28930257e-17
4.58207016e+01,1.34547186e-13,1.61554011e-13,6.12319006e-16,1.34993953e-18
4.70256386e+01,3.93759232e-15,4.77017743e-15,5.29018398e-18,2.26546401e-20
4.82615852e+01,5.84259240e-17,6.91814424e-17,5.17891991e-19,7.45828682e-22
4.95293465e+01,2.04870387e-18,2.28319137e-18,4.35307634e-21,1.56254728e-23
5.08297386e+01,1.50768995e-19,1.83668269e-19,1.89070749e-22,3.00434027e-25
5.21635971e+01,7.03405787e-22,8.02043288e-22,3.33496194e-24,6.70189339e-27
5.35317917e+01,5.33158459e-23,6.30289009e-23,6.00647260e-26,8.15046210e-29
5.49351997e+01,1.83384227e-25,2.04019028e-25,1.88913101e-27,2.15976793e-30
5.63747253e+01,2.12535706e-26,2.55032121e-26,2.48398394e-29,3.96266845e-32
5.78513031e+01,1.77301195e-28,1.37750141e-28,1.83128271e-30,2.14724816e-33
5.93278885e+01,1.35368741e-29,1.70514615e-29,3.28717327e-32,4.77439572e-35
6.08044662e+01,1.94305255e-31,1.61256701e-31,1.54099926e-33,1.22783583e-36
6.22810478e+01,9.65816281e-33,1.49699823e-32,4.54541654e-35,6.11554676e-38
6.37576256e+01,2.01527004e-34,2.01078709e-34,1.50493123e-36,8.30969989e-40
6.52341995e+01,6.77647454e-36,1.19044445e-35,4.71621011e-38,2.52233724e-41
6.67107849e+01,1.74122545e-37,1.64016380e-37,1.13785435e-39,0.00000000e+00
6.81873703e+01,4.73919141e-39,7.03451829e-39,2.10194770e-41,0.00000000e+00
6.96639481e+01,5.74532370e-41,8.26766094e-41,0.00000000e+00,0.00000000e+00
7.11405258e+01,0.00000000e+00,0.00000000e+00,0.00000000e+00,0.00000000e+00
7.26171036e+01,0.00000000e+00,0.00000000e+00,0.00000000e+00,0.00000000e+00
7.40936813e+01,0.00000000e+00,0.00000000e+00,0.00000000e+00,0.00000000e+00
7.55702591e+01,0.00000000e+00,0.00000000e+00,0.00000000e+00,0.00000000e+00
7.70468445e+01,0.00000000e+00,0.00000000e+00,0.00000000e+00,0.00000000e+00
7.85234222e+01,0.00000000e+00,0.00000000e+00,0.00000000e+00,0.00000000e+00
8.00000000e+01,0.00000000e+00,0.00000000e+00,0.00000000e+00,0.00000000e+00
