Height (km), 7_8 um ash conc (g/kg), 15_6 um ash conc (g/kg), 125 um ash conc (g/kg), 1 mm ash conc (g/kg)
0.00000000e+00,0.00000000e+00,0.00000000e+00,0.00000000e+00,0.00000000e+00
3.99999991e-02,7.82244548e-04,1.17920293e-03,3.42950877e-03,3.38494420e-01
7.99999982e-02,1.49527797e-03,2.23043375e-03,6.44441787e-03,4.74892437e-01
1.19999997e-01,2.29072059e-03,3.38675897e-03,8.52629542e-03,5.44550061e-01
1.59999996e-01,2.97038443e-03,4.36213566e-03,9.52304341e-03,6.01394355e-01
2.00000003e-01,3.82054714e-03,5.57494210e-03,1.04477638e-02,6.51740789e-01
2.39999995e-01,4.65342123e-03,6.74194377e-03,1.13103697e-02,7.09461570e-01
2.80000001e-01,5.39019844e-03,7.79875834e-03,1.25016253e-02,7.58810282e-01
3.19999993e-01,6.34647254e-03,9.15085152e-03,1.36944167e-02,7.94582486e-01
3.60000014e-01,7.64641445e-03,1.09860962e-02,1.52917011e-02,8.12824130e-01
4.00000006e-01,9.02167335e-03,1.28945587e-02,1.65582970e-02,8.26611757e-01
4.39999998e-01,1.06088147e-02,1.50975222e-02,1.78200956e-02,8.40525746e-01
4.79999989e-01,1.26535092e-02,1.79590583e-02,1.93709694e-02,8.56817603e-01
5.19999981e-01,1.48644531e-02,2.10301355e-02,2.13550627e-02,8.73709381e-01
5.60000002e-01,1.76158100e-02,2.48591062e-02,2.36498863e-02,8.90232325e-01
6.00000024e-01,2.16168128e-02,3.04542538e-02,2.69891098e-02,9.11616087e-01
6.41029537e-01,2.52629146e-02,3.55209112e-02,2.98960544e-02,9.32830930e-01
6.83115125e-01,2.93368436e-02,4.11555022e-02,3.29543687e-02,9.56758678e-01
7.26283848e-01,3.37973237e-02,4.72924933e-02,3.64280865e-02,9.85770226e-01
7.70563781e-01,3.77570242e-02,5.26842475e-02,3.96525711e-02,1.01961660e+00
8.15983355e-01,4.21537869e-02,5.86595982e-02,4.36837897e-02,1.05803323e+00
8.62571895e-01,4.74751554e-02,6.58965707e-02,4.92112748e-02,1.10770869e+00
9.10359621e-01,5.27703948e-02,7.31376335e-02,5.60269430e-02,1.16404343e+00
9.59377348e-01,6.00408427e-02,8.31460208e-02,6.62804842e-02,1.22726846e+00
1.00965667e+00,7.05296621e-02,9.77409184e-02,8.03887099e-02,1.30762386e+00
1.06123006e+00,8.49989355e-02,1.17956579e-01,9.99262854e-02,1.38924861e+00
1.11413085e+00,1.02900997e-01,1.43023029e-01,1.24351166e-01,1.48930717e+00
1.16839325e+00,1.27657145e-01,1.77811474e-01,1.59176290e-01,1.59772384e+00
1.22405231e+00,1.65016234e-01,2.30449915e-01,2.09207982e-01,1.72129214e+00
1.28114390e+00,2.31024563e-01,3.23771536e-01,3.01362216e-01,1.87036490e+00
1.33970511e+00,3.38104099e-01,4.75226462e-01,4.54834223e-01,2.05826926e+00
1.39977336e+00,2.00575000e+04,2.80960859e+04,1.98315215e+04,2.03678271e+03
1.46138775e+00,2.43690000e+04,3.41173242e+04,2.29692500e+04,1.94015723e+03
1.52458799e+00,1.60770000e+04,2.25075820e+04,1.52335176e+04,1.40738013e+03
1.58941495e+00,1.49713652e+04,2.09651035e+04,1.44525684e+04,1.52546582e+03
1.65591037e+00,1.45261602e+04,2.03445508e+04,1.41669922e+04,1.60999634e+03
1.72411728e+00,1.44274531e+04,2.02086289e+04,1.41872480e+04,1.71385254e+03
1.79407966e+00,1.47523574e+04,2.06659180e+04,1.46179082e+04,1.86288257e+03
1.86584306e+00,1.55198506e+04,2.17431172e+04,1.54859883e+04,2.06328516e+03
1.93945324e+00,1.67200469e+04,2.34262578e+04,1.67759297e+04,2.30610059e+03
2.01495814e+00,1.82104180e+04,2.55153867e+04,1.83326992e+04,2.56149805e+03
2.09240627e+00,1.97771602e+04,2.77108711e+04,1.99393145e+04,2.78573877e+03
2.17184782e+00,2.09905859e+04,2.94100098e+04,2.11190684e+04,2.87837817e+03
2.25333428e+00,2.11047578e+04,2.95673281e+04,2.10982969e+04,2.75691650e+03
2.33691788e+00,1.97326680e+04,2.76425840e+04,1.95967910e+04,2.46822534e+03
2.42265272e+00,1.74729805e+04,2.44758555e+04,1.72814863e+04,2.13076758e+03
2.51059437e+00,1.52419834e+04,2.13502148e+04,1.50359365e+04,1.83137903e+03
2.60079956e+00,1.33929141e+04,1.87598926e+04,1.31850469e+04,1.59870422e+03
2.69332647e+00,1.20315850e+04,1.68535117e+04,1.18553770e+04,1.46034338e+03
2.78823495e+00,1.16091426e+04,1.62628086e+04,1.14798545e+04,1.45536377e+03
2.88558602e+00,1.23211172e+04,1.72614316e+04,1.22431895e+04,1.61304297e+03
2.98544264e+00,1.40770098e+04,1.97226895e+04,1.40608037e+04,1.91864014e+03
3.08786964e+00,1.59006035e+04,2.22782012e+04,1.59234766e+04,2.21700586e+03
3.19293284e+00,1.74826641e+04,2.44954199e+04,1.75554512e+04,2.49094287e+03
3.30070019e+00,1.87195234e+04,2.62285156e+04,1.88272812e+04,2.70737939e+03
3.41124129e+00,1.92225352e+04,2.69333281e+04,1.93587168e+04,2.81501538e+03
3.52462745e+00,1.90068379e+04,2.66310586e+04,1.91580625e+04,2.79547192e+03
3.64093208e+00,1.81969258e+04,2.54957891e+04,1.83308398e+04,2.64782397e+03
3.76023054e+00,1.70283262e+04,2.38576641e+04,1.71200762e+04,2.42792822e+03
3.88259912e+00,1.59855234e+04,2.23958438e+04,1.60337998e+04,2.22630493e+03
4.00811720e+00,1.53007217e+04,2.14356016e+04,1.53036357e+04,2.07807861e+03
4.13686609e+00,1.48780918e+04,2.08429023e+04,1.48451328e+04,1.98535571e+03
4.26892853e+00,1.47077383e+04,2.06041406e+04,1.46605391e+04,1.94988013e+03
4.40439081e+00,1.47537510e+04,2.06687715e+04,1.47040000e+04,1.95482068e+03
4.54333878e+00,1.49875654e+04,2.09965879e+04,1.49399297e+04,1.99188293e+03
4.68586397e+00,1.53130254e+04,2.14527227e+04,1.52642871e+04,2.03786768e+03
4.83205652e+00,1.52958682e+04,2.14285586e+04,1.52361387e+04,2.03864844e+03
4.98201227e+00,1.49436562e+04,2.09350039e+04,1.48803389e+04,2.00069714e+03
5.13582754e+00,1.45690801e+04,2.04100625e+04,1.45002656e+04,1.95645935e+03
5.29360199e+00,1.40662109e+04,1.97050723e+04,1.39763906e+04,1.86782288e+03
5.45543718e+00,1.33635107e+04,1.87199707e+04,1.32462109e+04,1.75902368e+03
5.62143755e+00,1.25877891e+04,1.76326523e+04,1.24480605e+04,1.63738501e+03
5.79171038e+00,1.18362891e+04,1.65795547e+04,1.16894268e+04,1.54716528e+03
5.96636629e+00,1.12802627e+04,1.58006992e+04,1.11445146e+04,1.48834155e+03
6.14551687e+00,1.10448164e+04,1.54711904e+04,1.09285801e+04,1.48913831e+03
6.32927942e+00,1.10641045e+04,1.54985723e+04,1.09665986e+04,1.51971887e+03
6.51777077e+00,1.12471172e+04,1.57553389e+04,1.11692646e+04,1.56939221e+03
6.71111441e+00,1.15581670e+04,1.61914785e+04,1.15001719e+04,1.64452307e+03
6.90943432e+00,1.18922842e+04,1.66598301e+04,1.18494453e+04,1.71217004e+03
7.11285782e+00,1.21232129e+04,1.69834434e+04,1.20880488e+04,1.77041687e+03
7.32151794e+00,1.21678867e+04,1.70460195e+04,1.21350547e+04,1.79485632e+03
7.53554821e+00,1.21030635e+04,1.69551289e+04,1.20688896e+04,1.81059570e+03
7.75508738e+00,1.19645332e+04,1.67609375e+04,1.19263301e+04,1.81403699e+03
7.98027754e+00,1.18543672e+04,1.66063926e+04,1.18061641e+04,1.82243835e+03
8.21126270e+00,1.17446064e+04,1.64523555e+04,1.16821689e+04,1.82541174e+03
8.44819450e+00,1.16441621e+04,1.63114238e+04,1.15685312e+04,1.83189111e+03
8.69122219e+00,1.15575635e+04,1.61898164e+04,1.14652490e+04,1.83752039e+03
8.94050789e+00,1.14130361e+04,1.59871143e+04,1.13082559e+04,1.83742798e+03
9.19620800e+00,1.13075469e+04,1.58391426e+04,1.11941895e+04,1.84226306e+03
9.45849037e+00,1.12220283e+04,1.57192168e+04,1.11045195e+04,1.85102075e+03
9.72752285e+00,1.12539404e+04,1.57638320e+04,1.11348525e+04,1.88056152e+03
1.00034800e+01,1.11646934e+04,1.56385898e+04,1.10409043e+04,1.90051758e+03
1.02865391e+01,1.08274814e+04,1.51664023e+04,1.07203906e+04,1.91479712e+03
1.05768833e+01,1.05254883e+04,1.47435498e+04,1.04346133e+04,1.94163660e+03
1.08747025e+01,9.77494141e+03,1.36924639e+04,9.70691309e+03,1.92730273e+03
1.11801853e+01,8.96954199e+03,1.25649688e+04,8.94385645e+03,1.91930591e+03
1.14935322e+01,8.50051074e+03,1.19081826e+04,8.49168555e+03,1.92367163e+03
1.18149433e+01,7.86194678e+03,1.10144229e+04,7.89552637e+03,1.91450635e+03
1.21446266e+01,8.56313965e+03,1.19972910e+04,8.62875586e+03,2.06039307e+03
1.24827967e+01,9.53022070e+03,1.33513936e+04,9.57326465e+03,2.21546167e+03
1.28296700e+01,9.77828516e+03,1.36999189e+04,9.88167383e+03,2.36151758e+03
1.31854706e+01,1.22759570e+04,1.71989883e+04,1.23903340e+04,2.77664551e+03
1.35504293e+01,1.27892012e+04,1.79159785e+04,1.28178252e+04,2.91084058e+03
1.39247818e+01,8.92195605e+03,1.25005508e+04,9.07166309e+03,2.67579614e+03
1.43087692e+01,1.03457217e+04,1.44974199e+04,1.06030576e+04,3.07587720e+03
1.47026405e+01,1.63653857e+04,2.29273320e+04,1.64795234e+04,3.78917114e+03
1.51066484e+01,1.72177715e+04,2.41218398e+04,1.74333086e+04,3.90211230e+03
1.55210552e+01,2.02482656e+04,2.83732930e+04,2.10246797e+04,4.37779395e+03
1.59461288e+01,2.30541895e+04,3.23087812e+04,2.44716094e+04,4.72851855e+03
1.63821430e+01,1.73434492e+04,2.43171211e+04,2.01087539e+04,4.21770850e+03
1.68293781e+01,1.13963125e+04,1.60204238e+04,1.82110117e+04,3.69030151e+03
1.72881241e+01,1.25563408e+04,1.77129062e+04,2.25327168e+04,3.53292480e+03
1.77586803e+01,1.83131172e+04,2.58012871e+04,2.80999355e+04,3.69242456e+03
1.82413464e+01,2.57876484e+04,3.62588828e+04,3.37489922e+04,4.04431372e+03
1.87364349e+01,3.22660996e+04,4.53008203e+04,3.80493984e+04,4.32899072e+03
1.92442665e+01,3.74928203e+04,5.26119805e+04,4.20225742e+04,4.48977490e+03
1.97651691e+01,4.29707422e+04,6.02778984e+04,4.52442656e+04,4.48649365e+03
2.02994785e+01,4.67042500e+04,6.54625352e+04,4.51188633e+04,4.34062793e+03
2.08475418e+01,4.75627812e+04,6.65933906e+04,4.27993125e+04,4.33645850e+03
2.14097099e+01,4.70917031e+04,6.58857969e+04,4.06747344e+04,4.41245215e+03
2.19863453e+01,4.72936562e+04,6.61456406e+04,4.02803750e+04,4.74284961e+03
2.25778236e+01,4.46382031e+04,6.23940391e+04,3.71094766e+04,4.41205957e+03
2.31845264e+01,4.10786875e+04,5.73767461e+04,3.36585977e+04,4.34906445e+03
2.38068466e+01,4.01952578e+04,5.61504297e+04,3.45420859e+04,4.83476025e+03
2.44451809e+01,4.23476797e+04,5.91697344e+04,3.78530234e+04,5.03763818e+03
2.50999470e+01,3.99279766e+04,5.58151836e+04,3.66091562e+04,4.50809863e+03
2.57715645e+01,3.59460078e+04,5.02592500e+04,3.26749102e+04,3.54742896e+03
2.64604683e+01,3.25057344e+04,4.54444766e+04,2.91164297e+04,2.97562109e+03
2.71671047e+01,3.16547871e+04,4.42640234e+04,2.90729805e+04,3.04743994e+03
2.78919277e+01,3.04387539e+04,4.25925625e+04,2.88433750e+04,2.90451270e+03
2.86354065e+01,2.51564727e+04,3.51909609e+04,2.28378008e+04,1.32437439e+03
2.93980217e+01,1.05835645e+04,1.47756816e+04,8.25119531e+03,1.00241104e+02
3.01802654e+01,1.87906433e+03,2.60800684e+03,9.60519897e+02,8.36202502e-01
3.09826431e+01,6.78912048e+02,9.41895142e+02,3.02993652e+02,1.96067631e-01
3.18056717e+01,9.72611145e+02,1.34748108e+03,3.29400543e+02,8.02528262e-02
3.26498833e+01,5.93939697e+02,8.20011719e+02,1.92504944e+02,2.09136549e-02
3.35158234e+01,3.51848999e+02,4.84060608e+02,9.03038864e+01,1.05885528e-02
3.44040565e+01,1.00391411e+02,1.36843292e+02,1.31349049e+01,3.99898505e-04
3.53151436e+01,4.00256271e+01,5.42558441e+01,2.68828440e+00,7.39647658e-05
3.62496834e+01,2.14412060e+01,2.89721889e+01,7.20461845e-01,1.10805167e-05
3.72082787e+01,7.42333126e+00,9.94835281e+00,1.97835922e-01,6.00593694e-06
3.81915474e+01,2.81322217e+00,3.75904822e+00,7.84806907e-02,2.75945354e-06
3.92001228e+01,7.82032132e-01,1.03573465e+00,1.45511217e-02,7.27887482e-07
4.02346535e+01,2.19737276e-01,2.89325595e-01,3.04282573e-03,1.46962549e-07
4.12958107e+01,6.12376593e-02,8.04139748e-02,5.78119885e-04,4.19151114e-08
4.23842850e+01,1.17736384e-02,1.53728826e-02,7.17651419e-05,6.58129462e-09
4.35007744e+01,3.77974263e-03,4.95854951e-03,3.20690997e-05,3.52691099e-09
4.46459999e+01,1.02165237e-03,1.34052499e-03,7.43561486e-06,1.26581545e-09
4.58207016e+01,1.85152123e-04,2.41951318e-04,1.23466930e-06,2.55280075e-10
4.70256386e+01,2.88412884e-05,3.74706433e-05,1.93114914e-07,4.18203354e-11
4.82615852e+01,1.57102863e-06,2.01659168e-06,1.13305738e-08,2.40765090e-12
4.95293465e+01,3.54906113e-08,4.61490473e-08,2.69615830e-10,5.06511676e-14
5.08297386e+01,2.73387646e-10,3.51176643e-10,5.20912133e-12,2.82090400e-16
5.21635971e+01,1.38331989e-12,1.81704348e-12,1.30193897e-13,1.86961947e-19
5.35317917e+01,2.15428668e-13,2.79401339e-13,2.63300869e-15,4.12385595e-20
5.49351997e+01,3.55648488e-16,4.26009927e-16,1.26570483e-18,5.72905676e-22
5.63747253e+01,5.29188466e-18,7.73761206e-18,1.44356500e-18,1.60811126e-23
5.78513031e+01,2.17494507e-18,2.07170900e-18,4.03760137e-20,1.67353439e-25
5.93278885e+01,3.14851359e-19,4.67872173e-19,2.85188767e-22,9.31483567e-26
6.08044662e+01,5.93557625e-22,5.85201304e-22,6.89041412e-23,1.49616831e-27
6.22810478e+01,1.85080804e-22,2.59070024e-22,1.79423023e-25,4.74557504e-29
6.37576256e+01,1.64424497e-25,1.61191794e-25,2.86655875e-26,7.49783288e-31
6.52341995e+01,4.97191234e-26,6.68679425e-26,1.62232587e-28,2.48174011e-32
6.67107849e+01,3.07279186e-28,4.35752339e-28,4.52660079e-30,1.68692014e-34
6.81873703e+01,2.28212377e-29,3.10734292e-29,5.92813368e-31,2.11586242e-35
6.96639481e+01,3.50145090e-31,4.82674814e-31,1.04269751e-32,2.87348873e-37
7.11405258e+01,2.04731825e-32,2.76392635e-32,6.98688817e-34,2.20872664e-38
7.26171036e+01,4.42106364e-34,6.04034614e-34,1.50559891e-35,4.41409016e-40
7.40936813e+01,1.09260643e-35,1.49221202e-35,3.96666969e-37,0.00000000e+00
7.55702591e+01,2.08017152e-37,2.84549079e-37,7.89211295e-39,0.00000000e+00
7.70468445e+01,3.01559430e-39,4.17727072e-39,7.84727140e-41,0.00000000e+00
7.85234222e+01,4.20389539e-42,1.12103877e-41,0.00000000e+00,0.00000000e+00
8.00000000e+01,0.00000000e+00,0.00000000e+00,0.00000000e+00,0.00000000e+00
