Height (km), 7_8 um ash conc (g/kg), 15_6 um ash conc (g/kg), 125 um ash conc (g/kg), 1 mm ash conc (g/kg)
0.00000000e+00,0.00000000e+00,0.00000000e+00,0.00000000e+00,0.00000000e+00
3.99999991e-02,4.63942159e-03,8.20543990e-03,5.47053099e-01,4.22278023e+00
7.99999982e-02,9.67715867e-03,1.65637005e-02,7.09914088e-01,4.44036579e+00
1.19999997e-01,1.48865227e-02,2.48873048e-02,8.77086282e-01,4.52027225e+00
1.59999996e-01,2.01578103e-02,3.28407064e-02,1.07268345e+00,4.78954077e+00
2.00000003e-01,2.49722563e-02,3.98424491e-02,1.17990589e+00,4.93368530e+00
2.39999995e-01,2.97122858e-02,4.66599762e-02,1.32738447e+00,5.62870407e+00
2.80000001e-01,3.42294015e-02,5.30002639e-02,1.41627753e+00,5.28190804e+00
3.19999993e-01,3.88440005e-02,5.93968593e-02,1.50191438e+00,6.69001579e+00
3.60000014e-01,4.38904390e-02,6.64273202e-02,1.58378673e+00,5.76158524e+00
4.00000006e-01,4.87732366e-02,7.31925815e-02,1.65712750e+00,7.11390591e+00
4.39999998e-01,5.33958748e-02,7.96062499e-02,1.71471739e+00,6.50835800e+00
4.79999989e-01,5.81889451e-02,8.61525089e-02,1.76865745e+00,7.86391401e+00
5.19999981e-01,6.27299249e-02,9.23448205e-02,1.80789125e+00,7.21909618e+00
5.60000002e-01,6.74336627e-02,9.88139138e-02,1.84219754e+00,8.72104836e+00
6.00000024e-01,7.28078559e-02,1.06312633e-01,1.87389278e+00,7.67651510e+00
6.41029537e-01,7.72163123e-02,1.12387978e-01,1.90511394e+00,9.31855106e+00
6.83115125e-01,8.12426433e-02,1.17943510e-01,1.93874955e+00,8.10579967e+00
7.26283848e-01,8.56638774e-02,1.24145776e-01,1.97964716e+00,9.14755821e+00
7.70563781e-01,8.93799067e-02,1.29323453e-01,2.02644825e+00,8.35093975e+00
8.15983355e-01,9.43262279e-02,1.36424050e-01,2.07979631e+00,9.33419323e+00
8.62571895e-01,1.00338206e-01,1.45279408e-01,2.13782859e+00,8.68358707e+00
9.10359621e-01,1.07022017e-01,1.55400753e-01,2.18703127e+00,9.75905609e+00
9.59377348e-01,1.17338844e-01,1.71081245e-01,2.21655512e+00,8.72694778e+00
1.00965667e+00,1.28076911e-01,1.87764123e-01,2.24492311e+00,1.00020227e+01
1.06123006e+00,1.43268377e-01,2.11562306e-01,2.25611305e+00,9.62234306e+00
1.11413085e+00,1.62174463e-01,2.40839869e-01,2.27538562e+00,1.03507929e+01
1.16839325e+00,1.88815773e-01,2.81940013e-01,2.31692863e+00,1.04380150e+01
1.22405231e+00,2.21768022e-01,3.31911445e-01,2.38222218e+00,1.08600950e+01
1.28114390e+00,2.67766416e-01,4.03328896e-01,2.48904133e+00,1.14720106e+01
1.33970511e+00,3.35779727e-01,5.06936908e-01,2.64542389e+00,1.20774355e+01
1.39977336e+00,2.06392148e+04,2.88962695e+04,1.94070625e+04,1.28585864e+03
1.46138775e+00,2.56235078e+04,3.58344727e+04,2.18144160e+04,1.36633179e+03
1.52458799e+00,1.66112949e+04,2.32277930e+04,1.43081631e+04,1.03465808e+03
1.58941495e+00,1.55555098e+04,2.17638516e+04,1.39482568e+04,1.22655493e+03
1.65591037e+00,1.50436914e+04,2.10529023e+04,1.37315762e+04,1.31335571e+03
1.72411728e+00,1.46087188e+04,2.04480391e+04,1.35209004e+04,1.39056274e+03
1.79407966e+00,1.45670449e+04,2.03941992e+04,1.36987051e+04,1.51932971e+03
1.86584306e+00,1.53241289e+04,2.14591602e+04,1.46531523e+04,1.74492932e+03
1.93945324e+00,1.68733281e+04,2.36333164e+04,1.63819854e+04,2.06126611e+03
2.01495814e+00,1.88813711e+04,2.64493867e+04,1.85378555e+04,2.36126978e+03
2.09240627e+00,2.05890508e+04,2.88406699e+04,2.01666738e+04,2.46118506e+03
2.17184782e+00,2.07717891e+04,2.90917031e+04,2.00915684e+04,2.32554883e+03
2.25333428e+00,1.95083926e+04,2.73188711e+04,1.86992246e+04,2.10027197e+03
2.33691788e+00,1.79224531e+04,2.50964375e+04,1.70677539e+04,1.85594739e+03
2.42265272e+00,1.61901504e+04,2.26685234e+04,1.52629375e+04,1.60269092e+03
2.51059437e+00,1.47165840e+04,2.06049922e+04,1.38335430e+04,1.47091675e+03
2.60079956e+00,1.44526953e+04,2.02380293e+04,1.36891426e+04,1.53010681e+03
2.69332647e+00,1.53432998e+04,2.14875430e+04,1.46372998e+04,1.70561841e+03
2.78823495e+00,1.63494697e+04,2.28978965e+04,1.56680479e+04,1.87756506e+03
2.88558602e+00,1.71301270e+04,2.39916348e+04,1.64630820e+04,2.01202271e+03
2.98544264e+00,1.76632266e+04,2.47382109e+04,1.70062715e+04,2.10907764e+03
3.08786964e+00,1.74467969e+04,2.44349824e+04,1.68142734e+04,2.11244849e+03
3.19293284e+00,1.68735098e+04,2.36330625e+04,1.63222979e+04,2.11683301e+03
3.30070019e+00,1.64100586e+04,2.29869883e+04,1.60205859e+04,2.14511572e+03
3.41124129e+00,1.61729902e+04,2.26566875e+04,1.58610225e+04,2.12655859e+03
3.52462745e+00,1.62258447e+04,2.27315801e+04,1.59589199e+04,2.14918042e+03
3.64093208e+00,1.72207148e+04,2.41281406e+04,1.70885527e+04,2.34982617e+03
3.76023054e+00,1.98020059e+04,2.77468359e+04,1.97474551e+04,2.69685303e+03
3.88259912e+00,2.25788477e+04,3.16349316e+04,2.23776953e+04,2.94238086e+03
4.00811720e+00,2.36515977e+04,3.31339375e+04,2.32637539e+04,2.94778711e+03
4.13686609e+00,2.35908691e+04,3.30441133e+04,2.29842344e+04,2.80236548e+03
4.26892853e+00,2.25236289e+04,3.15448984e+04,2.17275273e+04,2.56202197e+03
4.40439081e+00,2.06465176e+04,2.89132480e+04,1.97635547e+04,2.27270459e+03
4.54333878e+00,1.85574492e+04,2.59867324e+04,1.76933906e+04,2.02090479e+03
4.68586397e+00,1.70048359e+04,2.38136895e+04,1.62453340e+04,1.88299573e+03
4.83205652e+00,1.66031172e+04,2.32532188e+04,1.59485547e+04,1.90373108e+03
4.98201227e+00,1.66569062e+04,2.33300430e+04,1.60766426e+04,1.96270679e+03
5.13582754e+00,1.67991230e+04,2.35305527e+04,1.62795303e+04,2.02420264e+03
5.29360199e+00,1.73480469e+04,2.42996484e+04,1.68152188e+04,2.08830420e+03
5.45543718e+00,1.79978984e+04,2.52088594e+04,1.73915059e+04,2.13577417e+03
5.62143755e+00,1.80000078e+04,2.52099258e+04,1.73164609e+04,2.10759888e+03
5.79171038e+00,1.72151367e+04,2.41095215e+04,1.65314277e+04,2.03255859e+03
5.96636629e+00,1.63806240e+04,2.29410117e+04,1.57597148e+04,1.96916138e+03
6.14551687e+00,1.56261699e+04,2.18851152e+04,1.50796016e+04,1.90749402e+03
6.32927942e+00,1.49420088e+04,2.09281035e+04,1.44824072e+04,1.84213354e+03
6.51777077e+00,1.49214697e+04,2.09006172e+04,1.45262031e+04,1.85549719e+03
6.71111441e+00,1.53433984e+04,2.14920859e+04,1.49669121e+04,1.90290894e+03
6.90943432e+00,1.55238789e+04,2.17458535e+04,1.51931045e+04,1.94165430e+03
7.11285782e+00,1.61325469e+04,2.25981953e+04,1.57750479e+04,1.99046606e+03
7.32151794e+00,1.67780156e+04,2.35001270e+04,1.63078721e+04,2.00650305e+03
7.53554821e+00,1.67687480e+04,2.34856797e+04,1.62341270e+04,1.95699097e+03
7.75508738e+00,1.70063887e+04,2.38166152e+04,1.63722988e+04,1.92754248e+03
7.98027754e+00,1.70679688e+04,2.38993555e+04,1.62852510e+04,1.85581567e+03
8.21126270e+00,1.64306152e+04,2.30045547e+04,1.55869316e+04,1.75388257e+03
8.44819450e+00,1.62124014e+04,2.26974648e+04,1.53109502e+04,1.71023865e+03
8.69122219e+00,1.63539697e+04,2.28927988e+04,1.53223389e+04,1.68406018e+03
8.94050789e+00,1.54536895e+04,2.16292148e+04,1.43504521e+04,1.54638647e+03
9.19620800e+00,1.25872998e+04,1.76157969e+04,1.16497822e+04,1.25845081e+03
9.45849037e+00,8.76500684e+03,1.22677021e+04,8.18343213e+03,9.23156128e+02
9.72752285e+00,6.27540918e+03,8.78608789e+03,5.98015088e+03,7.16195496e+02
1.00034800e+01,5.18123828e+03,7.25656250e+03,5.03567041e+03,6.40808411e+02
1.02865391e+01,6.02090039e+03,8.43518652e+03,5.95716553e+03,7.82372620e+02
1.05768833e+01,8.64805664e+03,1.21131416e+04,8.45862891e+03,1.04385181e+03
1.08747025e+01,1.28124277e+04,1.79386035e+04,1.22275439e+04,1.38462915e+03
1.11801853e+01,1.40328438e+04,1.96443848e+04,1.33087793e+04,1.52617065e+03
1.14935322e+01,1.46920264e+04,2.05717695e+04,1.41182988e+04,1.67395923e+03
1.18149433e+01,1.69914277e+04,2.37866758e+04,1.60762188e+04,1.75934998e+03
1.21446266e+01,1.35378105e+04,1.89437715e+04,1.24771025e+04,1.23439685e+03
1.24827967e+01,6.16759521e+03,8.62964746e+03,5.70203516e+03,5.78269104e+02
1.28296700e+01,3.50690991e+03,4.91084668e+03,3.43730103e+03,4.20544586e+02
1.31854706e+01,3.90317383e+03,5.46790332e+03,3.90204614e+03,5.02855469e+02
1.35504293e+01,4.52409961e+03,6.33751514e+03,4.49934717e+03,5.76342712e+02
1.39247818e+01,4.67004639e+03,6.54163525e+03,4.64495312e+03,6.06972168e+02
1.43087692e+01,5.37148535e+03,7.52349707e+03,5.34135938e+03,7.02470703e+02
1.47026405e+01,6.26945898e+03,8.78048828e+03,6.23358154e+03,8.21412537e+02
1.51066484e+01,6.35907959e+03,8.90692676e+03,6.40727637e+03,8.79119263e+02
1.55210552e+01,6.55686719e+03,9.18663184e+03,6.76064600e+03,9.37672485e+02
1.59461288e+01,6.77311133e+03,9.49220312e+03,7.15057812e+03,9.60989807e+02
1.63821430e+01,7.21192090e+03,1.01106660e+04,7.86774170e+03,9.73778564e+02
1.68293781e+01,7.27029688e+03,1.01964717e+04,8.14452344e+03,8.79466797e+02
1.72881241e+01,7.59119336e+03,1.06473271e+04,8.44898828e+03,8.04054565e+02
1.77586803e+01,9.66337695e+03,1.35505791e+04,1.02316006e+04,9.12438965e+02
1.82413464e+01,1.18598135e+04,1.66305273e+04,1.18454365e+04,1.05975366e+03
1.87364349e+01,1.35229355e+04,1.89649355e+04,1.31239814e+04,1.15391309e+03
1.92442665e+01,1.44721826e+04,2.03044824e+04,1.41448555e+04,1.12233032e+03
1.97651691e+01,1.68179121e+04,2.36337227e+04,1.67521680e+04,9.81806152e+02
2.02994785e+01,2.00868613e+04,2.81932070e+04,1.72357012e+04,7.29818481e+02
2.08475418e+01,2.04319004e+04,2.86059121e+04,1.45343760e+04,4.43785065e+02
2.14097099e+01,1.91420215e+04,2.66451699e+04,9.44606250e+03,3.32008484e+02
2.19863453e+01,1.53098369e+04,2.11909238e+04,6.46383398e+03,4.10710266e+02
2.25778236e+01,1.16280869e+04,1.60914229e+04,6.48821582e+03,5.29166382e+02
2.31845264e+01,9.71926660e+03,1.35120908e+04,7.33477246e+03,5.64322266e+02
2.38068466e+01,1.24082832e+04,1.73117871e+04,1.03046758e+04,7.00174683e+02
2.44451809e+01,1.45390771e+04,2.02917227e+04,1.15847500e+04,6.20638062e+02
2.50999470e+01,1.22377148e+04,1.70821094e+04,9.56238281e+03,3.06248505e+02
2.57715645e+01,8.58998730e+03,1.19733779e+04,5.67975684e+03,8.15140076e+01
2.64604683e+01,2.89259521e+03,4.01354761e+03,1.40596582e+03,3.61995125e+00
2.71671047e+01,5.53280273e+02,7.55976562e+02,8.34378586e+01,3.08787078e-03
2.78919277e+01,1.23564888e+02,1.63984375e+02,3.28225279e+00,5.49239572e-04
2.86354065e+01,1.01340240e+02,1.35220947e+02,2.85077477e+00,6.66894048e-05
2.93980217e+01,7.71574783e+01,1.02772903e+02,1.83374798e+00,4.98213594e-05
3.01802654e+01,3.88654633e+01,5.15547409e+01,9.30560708e-01,1.70652893e-05
3.09826431e+01,2.07860832e+01,2.76064453e+01,5.20608068e-01,1.83848333e-05
3.18056717e+01,1.11958160e+01,1.48726587e+01,2.66820520e-01,1.10536803e-05
3.26498833e+01,4.05813265e+00,5.34140015e+00,4.59361374e-02,2.74177091e-06
3.35158234e+01,7.45171666e-01,9.52727854e-01,1.78860646e-04,4.46312470e-07
3.44040565e+01,8.71612951e-02,1.08764179e-01,3.76059106e-05,7.75640530e-08
3.53151436e+01,1.98436975e-02,2.48460099e-02,5.69911663e-06,2.66928879e-08
3.62496834e+01,6.09666109e-03,7.70301651e-03,2.30955857e-06,8.65363958e-09
3.72082787e+01,1.94845386e-04,2.28786346e-04,1.10151532e-07,3.33117089e-10
3.81915474e+01,1.15833764e-05,1.34938482e-05,1.69935443e-08,1.02861218e-11
3.92001228e+01,1.35670030e-06,1.61291757e-06,5.81748516e-09,9.33229730e-13
4.02346535e+01,1.23548247e-07,1.48447128e-07,1.23592181e-09,7.63795291e-14
4.12958107e+01,1.01004121e-08,1.24434623e-08,1.68938405e-10,7.32335962e-15
4.23842850e+01,8.18499046e-10,1.03823861e-09,1.58534644e-11,7.32905210e-16
4.35007744e+01,6.21069515e-11,8.09563527e-11,9.91612608e-13,6.17375845e-17
4.46459999e+01,3.80634586e-12,5.04212644e-12,4.00712991e-14,3.61868357e-18
4.58207016e+01,1.65853998e-13,2.21144907e-13,1.07131287e-15,1.26608898e-19
4.70256386e+01,4.99947518e-15,6.59635632e-15,7.12651997e-18,2.01240643e-21
4.82615852e+01,7.91767158e-17,1.13622641e-16,6.86640688e-20,2.87362432e-23
4.95293465e+01,1.33871880e-19,1.77719005e-19,1.14006956e-21,5.39837929e-25
5.08297386e+01,5.70243532e-21,7.35829581e-21,6.88605835e-23,4.64132477e-27
5.21635971e+01,1.52156264e-23,2.25700504e-23,4.58162081e-25,9.46798716e-29
5.35317917e+01,9.31127532e-25,1.17545984e-24,7.78694460e-27,4.90256611e-31
5.49351997e+01,5.16770114e-26,7.20803102e-26,1.73226252e-28,1.53913441e-32
5.63747253e+01,3.13366135e-29,3.55214456e-29,2.92452613e-29,1.17251119e-34
5.78513031e+01,3.98092353e-30,5.58822002e-30,4.56469935e-32,7.24450231e-37
5.93278885e+01,7.30735578e-31,1.03329640e-30,4.20556673e-32,1.47676823e-36
6.08044662e+01,8.65339652e-33,1.10121068e-32,1.32442570e-34,8.28727912e-39
6.22810478e+01,9.40184144e-35,1.23497115e-34,4.96462836e-36,1.76563607e-40
6.37576256e+01,1.22406223e-36,1.54873443e-36,3.05749312e-38,0.00000000e+00
6.52341995e+01,1.34762873e-38,1.86386709e-38,6.24979115e-40,0.00000000e+00
6.67107849e+01,1.35925951e-40,2.74654499e-40,2.80259693e-42,0.00000000e+00
6.81873703e+01,4.20389539e-42,5.60519386e-42,0.00000000e+00,0.00000000e+00
6.96639481e+01,1.40129846e-42,1.40129846e-42,0.00000000e+00,0.00000000e+00
7.11405258e+01,0.00000000e+00,0.00000000e+00,0.00000000e+00,0.00000000e+00
7.26171036e+01,0.00000000e+00,0.00000000e+00,0.00000000e+00,0.00000000e+00
7.40936813e+01,0.00000000e+00,0.00000000e+00,0.00000000e+00,0.00000000e+00
7.55702591e+01,0.00000000e+00,0.00000000e+00,0.00000000e+00,0.00000000e+00
7.70468445e+01,0.00000000e+00,0.00000000e+00,0.00000000e+00,0.00000000e+00
7.85234222e+01,0.00000000e+00,0.00000000e+00,0.00000000e+00,0.00000000e+00
8.00000000e+01,0.00000000e+00,0.00000000e+00,0.00000000e+00,0.00000000e+00
