Height (km), 7_8 um ash conc (g/kg), 15_6 um ash conc (g/kg), 125 um ash conc (g/kg), 1 mm ash conc (g/kg)
0.00000000e+00,0.00000000e+00,0.00000000e+00,0.00000000e+00,0.00000000e+00
3.99999991e-02,7.61482734e-05,1.35915921e-04,2.59668157e-02,1.56108689e+00
7.99999982e-02,4.40004747e-04,7.16024544e-04,2.81154327e-02,1.68081844e+00
1.19999997e-01,1.15648389e-03,1.81579101e-03,2.96341348e-02,1.72027802e+00
1.59999996e-01,2.20366567e-03,3.40336072e-03,3.19700353e-02,1.81591058e+00
2.00000003e-01,3.29594756e-03,5.03703952e-03,3.32284681e-02,1.85776722e+00
2.39999995e-01,4.21122974e-03,6.37684204e-03,3.38508114e-02,1.92183876e+00
2.80000001e-01,5.09852124e-03,7.66412541e-03,3.47017273e-02,1.96835661e+00
3.19999993e-01,5.95193077e-03,8.88520293e-03,3.54271829e-02,2.02898097e+00
3.60000014e-01,6.72088051e-03,9.98149812e-03,3.61934528e-02,2.08186221e+00
4.00000006e-01,7.28554465e-03,1.07810516e-02,3.65354791e-02,2.14312220e+00
4.39999998e-01,7.87073188e-03,1.16224866e-02,3.72789577e-02,2.19964147e+00
4.79999989e-01,8.18360504e-03,1.20708514e-02,3.80869694e-02,2.26671886e+00
5.19999981e-01,8.62483121e-03,1.27358939e-02,3.90545800e-02,2.32963514e+00
5.60000002e-01,8.87932256e-03,1.31452940e-02,4.00168672e-02,2.39943576e+00
6.00000024e-01,9.50143673e-03,1.40899532e-02,4.14098501e-02,2.47447562e+00
6.41029537e-01,1.02208015e-02,1.51992803e-02,4.28519994e-02,2.55460763e+00
6.83115125e-01,1.08367987e-02,1.61205120e-02,4.38593104e-02,2.63666987e+00
7.26283848e-01,1.20261479e-02,1.78637654e-02,4.48885784e-02,2.73526430e+00
7.70563781e-01,1.27603943e-02,1.88891739e-02,4.58439067e-02,2.83755350e+00
8.15983355e-01,1.40282828e-02,2.06679944e-02,4.64052856e-02,2.94390821e+00
8.62571895e-01,1.47153214e-02,2.15774719e-02,4.74918336e-02,3.05555010e+00
9.10359621e-01,1.58805028e-02,2.32006609e-02,4.89598960e-02,3.18894625e+00
9.59377348e-01,1.65326409e-02,2.40840968e-02,5.03903888e-02,3.31594801e+00
1.00965667e+00,1.76744461e-02,2.57474333e-02,5.28706089e-02,3.47724271e+00
1.06123006e+00,1.93745643e-02,2.82205231e-02,5.63406572e-02,3.62418509e+00
1.11413085e+00,2.11766604e-02,3.09061483e-02,6.08864725e-02,3.83249474e+00
1.16839325e+00,2.34570503e-02,3.42794657e-02,6.57406151e-02,3.95806122e+00
1.22405231e+00,2.61735972e-02,3.82309034e-02,7.03950822e-02,4.26325417e+00
1.28114390e+00,2.96842940e-02,4.32810113e-02,7.67764151e-02,4.30635548e+00
1.33970511e+00,3.38318273e-02,4.91672903e-02,8.32650214e-02,4.72254324e+00
1.39977336e+00,2.01707754e+04,2.82555586e+04,1.99946016e+04,2.06916382e+03
1.46138775e+00,2.53493398e+04,3.54897461e+04,2.38370449e+04,1.96078198e+03
1.52458799e+00,1.50768301e+04,2.11055117e+04,1.42047656e+04,1.27631934e+03
1.58941495e+00,1.40853555e+04,1.97237656e+04,1.35735879e+04,1.41484375e+03
1.65591037e+00,1.38699785e+04,1.94250352e+04,1.35117227e+04,1.51009436e+03
1.72411728e+00,1.38471094e+04,1.93947461e+04,1.35796006e+04,1.58514746e+03
1.79407966e+00,1.38908652e+04,1.94572168e+04,1.36841719e+04,1.64632397e+03
1.86584306e+00,1.39551865e+04,1.95481680e+04,1.37923379e+04,1.69757483e+03
1.93945324e+00,1.40268438e+04,1.96491914e+04,1.38972031e+04,1.74071338e+03
2.01495814e+00,1.40928281e+04,1.97421211e+04,1.39888564e+04,1.77763623e+03
2.09240627e+00,1.41510703e+04,1.98241035e+04,1.40674668e+04,1.80871387e+03
2.17184782e+00,1.41987920e+04,1.98912773e+04,1.41319033e+04,1.83482556e+03
2.25333428e+00,1.42425342e+04,1.99528320e+04,1.41900586e+04,1.85949097e+03
2.33691788e+00,1.42962285e+04,2.00283066e+04,1.42567764e+04,1.88511206e+03
2.42265272e+00,1.43729980e+04,2.01360898e+04,1.43455117e+04,1.90992114e+03
2.51059437e+00,1.44812539e+04,2.02879492e+04,1.44644023e+04,1.93948413e+03
2.60079956e+00,1.46002773e+04,2.04548574e+04,1.45924121e+04,1.97063269e+03
2.69332647e+00,1.46976543e+04,2.05913926e+04,1.46965977e+04,1.99546777e+03
2.78823495e+00,1.47431426e+04,2.06551875e+04,1.47464199e+04,2.01068652e+03
2.88558602e+00,1.47202852e+04,2.06232070e+04,1.47262695e+04,2.01947205e+03
2.98544264e+00,1.46618096e+04,2.05413320e+04,1.46701367e+04,2.01643250e+03
3.08786964e+00,1.46264736e+04,2.04919043e+04,1.46380137e+04,2.02351636e+03
3.19293284e+00,1.46860566e+04,2.05754883e+04,1.47023105e+04,2.04183167e+03
3.30070019e+00,1.48632617e+04,2.08238477e+04,1.48842070e+04,2.07865112e+03
3.41124129e+00,1.51056562e+04,2.11634980e+04,1.51303340e+04,2.11906860e+03
3.52462745e+00,1.53908896e+04,2.15631055e+04,1.54172529e+04,2.16735693e+03
3.64093208e+00,1.56283613e+04,2.18957070e+04,1.56526045e+04,2.20420947e+03
3.76023054e+00,1.57031240e+04,2.20003242e+04,1.57231084e+04,2.21947632e+03
3.88259912e+00,1.55717441e+04,2.18161230e+04,1.55856230e+04,2.20161719e+03
4.00811720e+00,1.52420918e+04,2.13542129e+04,1.52518623e+04,2.16362598e+03
4.13686609e+00,1.49124053e+04,2.08924395e+04,1.49253291e+04,2.12807422e+03
4.26892853e+00,1.45722305e+04,2.04159062e+04,1.45848838e+04,2.09162183e+03
4.40439081e+00,1.43435449e+04,2.00957988e+04,1.43671680e+04,2.07639355e+03
4.54333878e+00,1.47710137e+04,2.06950312e+04,1.48098008e+04,2.15456738e+03
4.68586397e+00,1.54534727e+04,2.16514023e+04,1.55062236e+04,2.26721582e+03
4.83205652e+00,1.63148652e+04,2.28583945e+04,1.63784404e+04,2.39638989e+03
4.98201227e+00,1.70016387e+04,2.38198262e+04,1.70370039e+04,2.46541553e+03
5.13582754e+00,1.74109629e+04,2.43930898e+04,1.74458086e+04,2.52849316e+03
5.29360199e+00,1.79533750e+04,2.51526504e+04,1.79750820e+04,2.58979590e+03
5.45543718e+00,1.75705078e+04,2.46154492e+04,1.75541855e+04,2.50773560e+03
5.62143755e+00,1.61371338e+04,2.26077012e+04,1.61315928e+04,2.32823364e+03
5.79171038e+00,1.51396943e+04,2.12100742e+04,1.51151211e+04,2.16958350e+03
5.96636629e+00,1.30567734e+04,1.82917695e+04,1.30225762e+04,1.88941113e+03
6.14551687e+00,1.26039775e+04,1.76587910e+04,1.26261846e+04,1.88114832e+03
6.32927942e+00,1.37926416e+04,1.93247324e+04,1.38422998e+04,2.07717578e+03
6.51777077e+00,1.65136016e+04,2.31388770e+04,1.66492480e+04,2.53153540e+03
6.71111441e+00,1.95870293e+04,2.74432559e+04,1.96587617e+04,2.87130811e+03
6.90943432e+00,1.78616699e+04,2.50237285e+04,1.78513906e+04,2.58580322e+03
7.11285782e+00,1.79561328e+04,2.51566641e+04,1.79792617e+04,2.64042163e+03
7.32151794e+00,1.87413594e+04,2.62558574e+04,1.87303438e+04,2.72916406e+03
7.53554821e+00,1.72627734e+04,2.41833516e+04,1.72076035e+04,2.49706055e+03
7.75508738e+00,1.45818203e+04,2.04276289e+04,1.45325615e+04,2.15168140e+03
7.98027754e+00,1.31269746e+04,1.83906055e+04,1.31233730e+04,1.99486377e+03
8.21126270e+00,1.33657021e+04,1.87242754e+04,1.33314629e+04,2.00718750e+03
8.44819450e+00,1.28679609e+04,1.80275059e+04,1.28668447e+04,1.99683630e+03
8.69122219e+00,1.35520469e+04,1.89889688e+04,1.36789863e+04,2.20403638e+03
8.94050789e+00,1.67354746e+04,2.34487109e+04,1.68477578e+04,2.59462402e+03
9.19620800e+00,1.77315195e+04,2.48417539e+04,1.77463496e+04,2.63929102e+03
9.45849037e+00,1.67260469e+04,2.34325879e+04,1.67309199e+04,2.51048999e+03
9.72752285e+00,1.56473018e+04,2.19203457e+04,1.56271670e+04,2.35037988e+03
1.00034800e+01,1.30491260e+04,1.82810469e+04,1.30783604e+04,2.01660229e+03
1.02865391e+01,1.06739561e+04,1.49562148e+04,1.08233438e+04,1.76635034e+03
1.05768833e+01,1.03081953e+04,1.44450889e+04,1.05191963e+04,1.72806128e+03
1.08747025e+01,1.09933330e+04,1.54060605e+04,1.12966777e+04,1.86702039e+03
1.11801853e+01,1.32385176e+04,1.85555254e+04,1.37386689e+04,2.26654321e+03
1.14935322e+01,1.70902363e+04,2.39525391e+04,1.76075137e+04,2.75215259e+03
1.18149433e+01,1.76478164e+04,2.47306211e+04,1.80502812e+04,2.68652759e+03
1.21446266e+01,1.38881416e+04,1.94629121e+04,1.42606660e+04,2.14648877e+03
1.24827967e+01,1.27317061e+04,1.78438633e+04,1.31473271e+04,2.02864893e+03
1.28296700e+01,1.37757949e+04,1.93078184e+04,1.43056875e+04,2.21395239e+03
1.31854706e+01,1.46724736e+04,2.05665742e+04,1.53835332e+04,2.32944092e+03
1.35504293e+01,1.43833037e+04,2.01647207e+04,1.52976357e+04,2.23914038e+03
1.39247818e+01,1.34139561e+04,1.88126055e+04,1.46711250e+04,2.08131567e+03
1.43087692e+01,1.34312090e+04,1.88425352e+04,1.50215215e+04,1.99640955e+03
1.47026405e+01,1.51922695e+04,2.13091367e+04,1.69248516e+04,2.09318994e+03
1.51066484e+01,1.71378301e+04,2.40382168e+04,1.91591836e+04,2.32486255e+03
1.55210552e+01,1.90360605e+04,2.67093145e+04,2.13280820e+04,2.58100562e+03
1.59461288e+01,2.05112578e+04,2.87859707e+04,2.23756523e+04,2.46046265e+03
1.63821430e+01,1.94541133e+04,2.73068223e+04,2.03152949e+04,2.00978162e+03
1.68293781e+01,1.78009141e+04,2.49780977e+04,1.77100762e+04,1.71417627e+03
1.72881241e+01,1.74655293e+04,2.44830977e+04,1.68080352e+04,1.67598767e+03
1.77586803e+01,2.06978633e+04,2.89803242e+04,1.95232109e+04,2.10422852e+03
1.82413464e+01,2.33836113e+04,3.27173223e+04,2.16750996e+04,2.25085791e+03
1.87364349e+01,2.27316309e+04,3.17943750e+04,2.04749648e+04,2.15473828e+03
1.92442665e+01,2.13225020e+04,2.98220059e+04,1.90774199e+04,1.86394958e+03
1.97651691e+01,1.94346797e+04,2.71673281e+04,1.64715527e+04,1.11935046e+03
2.02994785e+01,1.42424141e+04,1.98892969e+04,1.11645869e+04,8.78336304e+02
2.08475418e+01,1.32875771e+04,1.85559727e+04,1.07202803e+04,1.00684509e+03
2.14097099e+01,1.35499141e+04,1.89222793e+04,1.11208223e+04,1.15085022e+03
2.19863453e+01,1.25161543e+04,1.74815977e+04,1.07986826e+04,1.24964233e+03
2.25778236e+01,1.20277012e+04,1.68097402e+04,1.07529863e+04,9.77160156e+02
2.31845264e+01,1.00087568e+04,1.39876436e+04,8.67646973e+03,6.46341248e+02
2.38068466e+01,7.14375439e+03,9.97961621e+03,5.95710205e+03,3.80959290e+02
2.44451809e+01,3.37293359e+03,4.70288818e+03,2.40120361e+03,5.13209000e+01
2.50999470e+01,6.25718994e+02,8.63446289e+02,1.75447815e+02,1.40011340e-01
2.57715645e+01,4.47771881e+02,6.17367493e+02,1.29910355e+02,5.85282147e-02
2.64604683e+01,3.65190063e+02,5.02898773e+02,9.67685852e+01,1.29207531e-02
2.71671047e+01,2.97154572e+02,4.08242767e+02,6.77594833e+01,5.45124197e-03
2.78919277e+01,1.83453094e+02,2.50946121e+02,3.14789734e+01,1.72230974e-03
2.86354065e+01,8.25050278e+01,1.12417778e+02,1.17867994e+01,1.75740779e-03
2.93980217e+01,4.40622635e+01,6.00058136e+01,7.15320396e+00,9.33318806e-04
3.01802654e+01,1.97216759e+01,2.67899647e+01,2.11654735e+00,3.92083457e-04
3.09826431e+01,1.01669827e+01,1.37878685e+01,6.29752338e-01,1.81191699e-05
3.18056717e+01,4.53843737e+00,6.10476828e+00,1.28864571e-01,9.26422035e-06
3.26498833e+01,1.71010113e+00,2.27530932e+00,2.47089490e-02,5.01287923e-06
3.35158234e+01,4.50054854e-01,5.93153775e-01,9.30842198e-03,2.10272310e-06
3.44040565e+01,1.53471723e-01,2.03283072e-01,5.17884875e-03,5.91378296e-07
3.53151436e+01,5.18513583e-02,6.90992847e-02,1.84728147e-03,1.14031657e-07
3.62496834e+01,1.60749238e-02,2.14043409e-02,3.08455899e-04,3.44476838e-08
3.72082787e+01,2.95042945e-03,3.89347854e-03,1.24538001e-05,8.02033728e-09
3.81915474e+01,2.74523365e-04,3.57327081e-04,6.66800929e-07,1.53689272e-09
3.92001228e+01,1.95269658e-05,2.52075188e-05,1.01323600e-07,2.60533095e-10
4.02346535e+01,1.40884751e-07,1.83487472e-07,3.20646585e-08,1.98091699e-11
4.12958107e+01,2.09606359e-08,2.87910815e-08,2.48594567e-09,5.44645817e-13
4.23842850e+01,2.25650765e-09,3.01781533e-09,6.15280465e-11,7.42492819e-15
4.35007744e+01,1.31030690e-11,1.56730965e-11,2.91172089e-13,2.74404926e-16
4.46459999e+01,2.18321617e-13,2.86625514e-13,9.32537027e-15,5.54344228e-18
4.58207016e+01,6.26307088e-15,8.34941552e-15,3.72466168e-16,6.90111680e-20
4.70256386e+01,2.19835305e-16,2.94607562e-16,1.69614956e-17,2.54386028e-21
4.82615852e+01,7.40179245e-18,9.60626352e-18,6.53165386e-19,5.31886878e-23
4.95293465e+01,4.76825001e-20,7.17460210e-20,8.05347083e-21,6.50817790e-25
5.08297386e+01,1.68946803e-21,2.15083479e-21,2.13969319e-22,1.49401812e-26
5.21635971e+01,4.51032422e-23,7.45228819e-23,3.80457123e-24,3.67592450e-28
5.35317917e+01,1.40767486e-24,2.42592004e-24,9.64703979e-26,7.49376257e-30
5.49351997e+01,3.80858532e-26,7.54823591e-26,2.11185595e-27,2.21828997e-31
5.63747253e+01,3.08671031e-28,1.33126566e-27,2.93186211e-29,1.39789182e-33
5.78513031e+01,1.82249743e-29,2.37430615e-29,2.20567052e-30,8.51796841e-35
5.93278885e+01,7.20109838e-32,5.77934572e-31,1.62420464e-32,1.01125679e-36
6.08044662e+01,1.00117471e-32,1.45554457e-32,1.63691445e-33,4.91351294e-38
6.22810478e+01,1.54616583e-34,6.19129155e-34,2.65723971e-35,8.81416734e-40
6.37576256e+01,5.96376232e-36,9.62526687e-36,5.53591366e-37,9.80908925e-42
6.52341995e+01,1.42943654e-37,2.95920605e-37,1.59635921e-38,0.00000000e+00
6.67107849e+01,5.46506401e-39,6.96725596e-39,4.65231090e-40,0.00000000e+00
6.81873703e+01,1.42932443e-40,3.12489558e-40,0.00000000e+00,0.00000000e+00
6.96639481e+01,0.00000000e+00,0.00000000e+00,0.00000000e+00,0.00000000e+00
7.11405258e+01,0.00000000e+00,0.00000000e+00,0.00000000e+00,0.00000000e+00
7.26171036e+01,0.00000000e+00,0.00000000e+00,0.00000000e+00,0.00000000e+00
7.40936813e+01,0.00000000e+00,0.00000000e+00,0.00000000e+00,0.00000000e+00
7.55702591e+01,0.00000000e+00,0.00000000e+00,0.00000000e+00,0.00000000e+00
7.70468445e+01,0.00000000e+00,0.00000000e+00,0.00000000e+00,0.00000000e+00
7.85234222e+01,0.00000000e+00,0.00000000e+00,0.00000000e+00,0.00000000e+00
8.00000000e+01,0.00000000e+00,0.00000000e+00,0.00000000e+00,0.00000000e+00
