Height (km), 7_8 um ash conc (g/kg), 15_6 um ash conc (g/kg), 125 um ash conc (g/kg), 1 mm ash conc (g/kg)
0.00000000e+00,0.00000000e+00,0.00000000e+00,0.00000000e+00,0.00000000e+00
3.99999991e-02,1.16689899e-03,2.20059650e-03,4.54186834e-02,3.23222971e+00
7.99999982e-02,3.53298592e-03,6.22276915e-03,5.96638806e-02,3.51916766e+00
1.19999997e-01,6.51165191e-03,1.08583188e-02,7.18410164e-02,3.63028383e+00
1.59999996e-01,8.72167200e-03,1.44084096e-02,9.11905915e-02,3.83170009e+00
2.00000003e-01,1.40745752e-02,2.29572877e-02,1.15208492e-01,3.94749808e+00
2.39999995e-01,2.33177692e-02,3.69281396e-02,1.45095348e-01,4.08881664e+00
2.80000001e-01,3.53236459e-02,5.48412129e-02,1.80390731e-01,4.21086550e+00
3.19999993e-01,5.00814393e-02,7.59578943e-02,2.23979920e-01,4.35013485e+00
3.60000014e-01,6.89341873e-02,1.02712423e-01,2.77272552e-01,4.49143600e+00
4.00000006e-01,8.46608281e-02,1.24832958e-01,3.41398060e-01,4.64009333e+00
4.39999998e-01,1.05831921e-01,1.54689223e-01,4.16853219e-01,4.79980898e+00
4.79999989e-01,1.26632810e-01,1.83789313e-01,5.03951907e-01,4.95363426e+00
5.19999981e-01,1.46648362e-01,2.11645365e-01,6.02916241e-01,5.11295938e+00
5.60000002e-01,1.65562868e-01,2.37920210e-01,7.10946620e-01,5.26261902e+00
6.00000024e-01,1.89379171e-01,2.70696759e-01,8.31815660e-01,5.39713860e+00
6.41029537e-01,2.09675133e-01,2.98394352e-01,9.54984069e-01,5.54381990e+00
6.83115125e-01,2.24581912e-01,3.18478674e-01,1.07764447e+00,5.66320944e+00
7.26283848e-01,2.37442061e-01,3.35634500e-01,1.18691254e+00,5.82306528e+00
7.70563781e-01,2.51263797e-01,3.54756474e-01,1.26433265e+00,5.97215557e+00
8.15983355e-01,2.56934345e-01,3.62317085e-01,1.29372025e+00,6.18655014e+00
8.62571895e-01,2.74423301e-01,3.87449503e-01,1.26257825e+00,6.38081503e+00
9.10359621e-01,2.82552063e-01,3.98821175e-01,1.15921891e+00,6.64265013e+00
9.59377348e-01,3.01740170e-01,4.26490098e-01,1.01715457e+00,6.86710739e+00
1.00965667e+00,3.23053867e-01,4.55390394e-01,8.45882297e-01,7.17504501e+00
1.06123006e+00,3.51318985e-01,4.94465083e-01,7.24252701e-01,7.50123787e+00
1.11413085e+00,3.93823177e-01,5.53925455e-01,6.62317157e-01,7.96534061e+00
1.16839325e+00,4.48273271e-01,6.30261898e-01,6.67244077e-01,8.24651051e+00
1.22405231e+00,5.04609048e-01,7.09058464e-01,7.04186678e-01,9.17295456e+00
1.28114390e+00,6.08481228e-01,8.59064698e-01,8.65064502e-01,8.71982670e+00
1.33970511e+00,7.17455029e-01,1.01528800e+00,1.06987882e+00,9.48390865e+00
1.39977336e+00,2.05964902e+04,2.88352793e+04,1.92928164e+04,1.18085815e+03
1.46138775e+00,2.53745000e+04,3.54833008e+04,2.14972812e+04,1.30682166e+03
1.52458799e+00,1.61217266e+04,2.25437852e+04,1.38895781e+04,9.96869812e+02
1.58941495e+00,1.54763223e+04,2.16550938e+04,1.39569551e+04,1.24432776e+03
1.65591037e+00,1.57354941e+04,2.20240312e+04,1.44782871e+04,1.38729578e+03
1.72411728e+00,1.59724404e+04,2.23581836e+04,1.48082695e+04,1.45357336e+03
1.79407966e+00,1.57176328e+04,2.20013242e+04,1.45603643e+04,1.42787683e+03
1.86584306e+00,1.46342793e+04,2.04838867e+04,1.35073770e+04,1.32548584e+03
1.93945324e+00,1.32007676e+04,1.84776914e+04,1.21877637e+04,1.22995020e+03
2.01495814e+00,1.22940557e+04,1.72111133e+04,1.14535410e+04,1.23265112e+03
2.09240627e+00,1.25018496e+04,1.75062793e+04,1.18406758e+04,1.38083960e+03
2.17184782e+00,1.38388760e+04,1.93832559e+04,1.33476387e+04,1.66987463e+03
2.25333428e+00,1.61291904e+04,2.25950312e+04,1.57905010e+04,2.10110767e+03
2.33691788e+00,1.90517461e+04,2.66921406e+04,1.88866426e+04,2.61205054e+03
2.42265272e+00,2.15060469e+04,3.01308359e+04,2.13988184e+04,2.92768018e+03
2.51059437e+00,2.23691992e+04,3.13372988e+04,2.21409805e+04,2.91649194e+03
2.60079956e+00,2.17633281e+04,3.04853281e+04,2.13792305e+04,2.70702002e+03
2.69332647e+00,2.05599395e+04,2.87967871e+04,2.00347578e+04,2.43156836e+03
2.78823495e+00,1.89353457e+04,2.65183789e+04,1.82699023e+04,2.10648047e+03
2.88558602e+00,1.71058086e+04,2.39534492e+04,1.63258613e+04,1.79597607e+03
2.98544264e+00,1.56975938e+04,2.19794551e+04,1.48517207e+04,1.60022473e+03
3.08786964e+00,1.46797256e+04,2.05540586e+04,1.38583672e+04,1.50197034e+03
3.19293284e+00,1.43370625e+04,2.00751367e+04,1.35490010e+04,1.49875720e+03
3.30070019e+00,1.46995371e+04,2.05839102e+04,1.39290000e+04,1.58516028e+03
3.41124129e+00,1.51631973e+04,2.12336738e+04,1.43829062e+04,1.66512512e+03
3.52462745e+00,1.51848281e+04,2.12637930e+04,1.44092764e+04,1.71274695e+03
3.64093208e+00,1.52646475e+04,2.13761562e+04,1.45334570e+04,1.76872998e+03
3.76023054e+00,1.53568232e+04,2.15053809e+04,1.46480488e+04,1.82713342e+03
3.88259912e+00,1.51996396e+04,2.12855625e+04,1.45322090e+04,1.85309888e+03
4.00811720e+00,1.48247461e+04,2.07613477e+04,1.42295371e+04,1.86127124e+03
4.13686609e+00,1.43806768e+04,2.01410234e+04,1.38935986e+04,1.85316724e+03
4.26892853e+00,1.41277588e+04,1.97875098e+04,1.36874346e+04,1.81402112e+03
4.40439081e+00,1.41043301e+04,1.97545156e+04,1.36659355e+04,1.80382886e+03
4.54333878e+00,1.44068018e+04,2.01793262e+04,1.40276152e+04,1.88542896e+03
4.68586397e+00,1.49889121e+04,2.09964102e+04,1.46825264e+04,1.98642041e+03
4.83205652e+00,1.56695215e+04,2.19509023e+04,1.54063652e+04,2.07425488e+03
4.98201227e+00,1.67084688e+04,2.34074258e+04,1.64766602e+04,2.20702393e+03
5.13582754e+00,1.81970703e+04,2.54924902e+04,1.79106719e+04,2.33122437e+03
5.29360199e+00,1.88396250e+04,2.63892246e+04,1.83854121e+04,2.31561133e+03
5.45543718e+00,1.85450059e+04,2.59734844e+04,1.79701113e+04,2.21222217e+03
5.62143755e+00,1.82820156e+04,2.56032871e+04,1.76247324e+04,2.13952979e+03
5.79171038e+00,1.81128516e+04,2.53645547e+04,1.73555039e+04,2.05205542e+03
5.96636629e+00,1.79370195e+04,2.51159297e+04,1.70499297e+04,1.96831152e+03
6.14551687e+00,1.71943320e+04,2.40736797e+04,1.62197129e+04,1.82952087e+03
6.32927942e+00,1.60333867e+04,2.24472344e+04,1.50639688e+04,1.69783191e+03
6.51777077e+00,1.49150820e+04,2.08806035e+04,1.39629121e+04,1.56869568e+03
6.71111441e+00,1.38027881e+04,1.93243828e+04,1.29615195e+04,1.50328943e+03
6.90943432e+00,1.37469570e+04,1.92480527e+04,1.29861660e+04,1.54643652e+03
7.11285782e+00,1.41103936e+04,1.97584043e+04,1.34106484e+04,1.65069470e+03
7.32151794e+00,1.45225918e+04,2.03385000e+04,1.39533848e+04,1.78868030e+03
7.53554821e+00,1.53803428e+04,2.15414961e+04,1.48720576e+04,1.94668323e+03
7.75508738e+00,1.56249141e+04,2.18839336e+04,1.51269678e+04,1.98464099e+03
7.98027754e+00,1.50690762e+04,2.11056875e+04,1.46197842e+04,1.93136340e+03
8.21126270e+00,1.53644629e+04,2.15194492e+04,1.49228770e+04,1.95926965e+03
8.44819450e+00,1.44939805e+04,2.03000723e+04,1.40859229e+04,1.84007471e+03
8.69122219e+00,1.31243516e+04,1.83832402e+04,1.28220010e+04,1.68993298e+03
8.94050789e+00,1.39955361e+04,1.96022715e+04,1.36177559e+04,1.74555786e+03
9.19620800e+00,1.51265918e+04,2.11867598e+04,1.47169424e+04,1.84617419e+03
9.45849037e+00,1.84617969e+04,2.58524414e+04,1.76853242e+04,2.06759131e+03
9.72752285e+00,1.60840869e+04,2.25175352e+04,1.51829971e+04,1.72483887e+03
1.00034800e+01,1.31663506e+04,1.84357148e+04,1.25463584e+04,1.47772241e+03
1.02865391e+01,1.52512900e+04,2.13511523e+04,1.43906914e+04,1.64322095e+03
1.05768833e+01,1.69283535e+04,2.36938770e+04,1.58217461e+04,1.81007776e+03
1.08747025e+01,1.56684092e+04,2.19355000e+04,1.48921514e+04,1.80637354e+03
1.11801853e+01,1.59826963e+04,2.23821289e+04,1.54564414e+04,1.89107507e+03
1.14935322e+01,1.66760059e+04,2.33480840e+04,1.59432510e+04,1.82580627e+03
1.18149433e+01,1.14493916e+04,1.60250830e+04,1.08674795e+04,1.20743091e+03
1.21446266e+01,5.82419092e+03,8.15484375e+03,5.87763623e+03,7.29218384e+02
1.24827967e+01,5.55363086e+03,7.77939502e+03,5.96371387e+03,7.56953857e+02
1.28296700e+01,6.74404639e+03,9.44587988e+03,7.43147754e+03,8.81484619e+02
1.31854706e+01,7.08219873e+03,9.92311230e+03,8.37194727e+03,9.53264832e+02
1.35504293e+01,7.26631738e+03,1.01847568e+04,9.24028027e+03,9.64446960e+02
1.39247818e+01,6.39521973e+03,8.96933789e+03,9.04384570e+03,8.42893494e+02
1.43087692e+01,5.02862646e+03,7.06316260e+03,8.23591406e+03,7.00922729e+02
1.47026405e+01,4.75614697e+03,6.69154736e+03,8.16413574e+03,6.64328979e+02
1.51066484e+01,5.12463916e+03,7.22406152e+03,8.38745508e+03,6.57451477e+02
1.55210552e+01,5.73895361e+03,8.11178906e+03,8.52865625e+03,6.62097778e+02
1.59461288e+01,7.39207959e+03,1.04536885e+04,9.41432422e+03,7.24780457e+02
1.63821430e+01,8.72938770e+03,1.23369541e+04,9.75957324e+03,6.92906494e+02
1.68293781e+01,8.57466602e+03,1.21079072e+04,8.45579199e+03,5.18214355e+02
1.72881241e+01,8.99045898e+03,1.26672930e+04,7.51921729e+03,4.11060883e+02
1.77586803e+01,9.92030664e+03,1.39402158e+04,6.78188721e+03,3.58365234e+02
1.82413464e+01,1.03885117e+04,1.45535791e+04,5.68806055e+03,2.93530212e+02
1.87364349e+01,1.03748555e+04,1.44768945e+04,4.68921387e+03,2.51756241e+02
1.92442665e+01,1.04954561e+04,1.45931562e+04,4.63753516e+03,2.95711792e+02
1.97651691e+01,1.08172559e+04,1.50079521e+04,5.15597607e+03,3.51528992e+02
2.02994785e+01,9.66856543e+03,1.33610713e+04,4.53492627e+03,2.63046204e+02
2.08475418e+01,7.17517627e+03,9.84901465e+03,3.32994214e+03,1.80701965e+02
2.14097099e+01,5.75670996e+03,7.89891943e+03,3.20476758e+03,1.78209366e+02
2.19863453e+01,5.00040332e+03,6.89636572e+03,3.20541406e+03,1.73039261e+02
2.25778236e+01,3.97676270e+03,5.50934814e+03,2.62148730e+03,1.30233948e+02
2.31845264e+01,3.00453442e+03,4.16925342e+03,1.89548328e+03,8.76844940e+01
2.38068466e+01,1.96057019e+03,2.72106543e+03,1.15164282e+03,3.75588951e+01
2.44451809e+01,9.22975159e+02,1.27734949e+03,4.36712006e+02,6.06064367e+00
2.50999470e+01,2.71340485e+02,3.71317535e+02,7.03328934e+01,9.40390453e-02
2.57715645e+01,1.02361763e+02,1.37892670e+02,6.00520897e+00,1.83639044e-04
2.64604683e+01,8.28155212e+01,1.11397621e+02,3.34872866e+00,2.56673229e-05
2.71671047e+01,6.06643372e+01,8.06794891e+01,1.96501756e+00,1.82864242e-05
2.78919277e+01,3.11154881e+01,4.08396988e+01,1.10783899e+00,1.28463143e-05
2.86354065e+01,1.67429581e+01,2.18899956e+01,5.16153753e-01,8.67374638e-06
2.93980217e+01,5.11461020e+00,6.55144024e+00,7.82125518e-02,5.43603437e-06
3.01802654e+01,1.05823076e+00,1.29196644e+00,1.78169296e-03,3.17302761e-06
3.09826431e+01,2.59189337e-01,3.12385142e-01,5.08214871e-05,1.40207442e-06
3.18056717e+01,6.69370517e-02,8.10030252e-02,2.00785125e-05,4.64523112e-07
3.26498833e+01,1.77718867e-02,2.13551931e-02,1.50138794e-05,1.26534417e-07
3.35158234e+01,5.59531711e-03,6.74277265e-03,5.41535746e-06,2.40048870e-08
3.44040565e+01,1.62938458e-03,1.95892318e-03,1.63194568e-06,4.43291270e-09
3.53151436e+01,1.66805403e-04,1.95278248e-04,3.91032643e-07,6.30807961e-10
3.62496834e+01,1.30163498e-05,1.48201016e-05,8.92582364e-08,6.71252984e-11
3.72082787e+01,1.82277608e-06,2.14514785e-06,2.45873899e-08,1.01460576e-11
3.81915474e+01,1.78637976e-07,2.12826450e-07,4.56121585e-09,9.58212025e-13
3.92001228e+01,1.42704826e-08,1.71317733e-08,4.55850357e-10,7.85558413e-14
4.02346535e+01,7.21988191e-10,9.07999120e-10,5.15927856e-11,6.21744545e-15
4.12958107e+01,3.14839821e-11,4.29332403e-11,4.48322889e-12,3.42856676e-16
4.23842850e+01,1.92026429e-12,2.72969733e-12,4.03459547e-13,1.91774232e-17
4.35007744e+01,1.08286488e-13,1.48081037e-13,2.14047293e-14,8.57614345e-19
4.46459999e+01,5.41151562e-15,6.24348578e-15,2.44088531e-16,4.64727904e-20
4.58207016e+01,3.73998663e-16,4.29713234e-16,2.00545018e-18,3.91890386e-21
4.70256386e+01,1.69513809e-17,2.11122466e-17,1.87126139e-20,1.72359658e-22
4.82615852e+01,2.72034953e-20,3.54402884e-20,4.36716527e-22,4.35649224e-25
4.95293465e+01,6.53897381e-22,1.10119944e-21,8.91769309e-24,1.24473053e-26
5.08297386e+01,8.15932718e-24,8.72089044e-24,2.75013700e-25,1.45301363e-28
5.21635971e+01,1.22199485e-25,1.88338421e-25,4.47724401e-27,2.68380557e-30
5.35317917e+01,2.30402774e-27,2.99776331e-27,3.73520330e-29,4.85790144e-32
5.49351997e+01,3.26554603e-29,4.73137311e-29,5.90385831e-31,8.31345788e-34
5.63747253e+01,4.79083208e-31,6.57590301e-31,9.92797843e-33,1.12993727e-35
5.78513031e+01,9.48331978e-33,1.30975520e-32,1.49893392e-34,2.13587302e-37
5.93278885e+01,1.75328977e-34,2.37048721e-34,3.65730487e-36,3.52987083e-39
6.08044662e+01,5.46064299e-36,7.10330487e-36,8.59822725e-38,8.68805048e-41
6.22810478e+01,1.37440755e-37,1.95171460e-37,2.87686575e-39,0.00000000e+00
6.37576256e+01,4.27676291e-39,5.88405225e-39,3.78350585e-41,0.00000000e+00
6.52341995e+01,1.23314265e-40,1.82168800e-40,0.00000000e+00,0.00000000e+00
6.67107849e+01,0.00000000e+00,0.00000000e+00,0.00000000e+00,0.00000000e+00
6.81873703e+01,0.00000000e+00,0.00000000e+00,0.00000000e+00,0.00000000e+00
6.96639481e+01,0.00000000e+00,0.00000000e+00,0.00000000e+00,0.00000000e+00
7.11405258e+01,0.00000000e+00,0.00000000e+00,0.00000000e+00,0.00000000e+00
7.26171036e+01,0.00000000e+00,0.00000000e+00,0.00000000e+00,0.00000000e+00
7.40936813e+01,0.00000000e+00,0.00000000e+00,0.00000000e+00,0.00000000e+00
7.55702591e+01,0.00000000e+00,0.00000000e+00,0.00000000e+00,0.00000000e+00
7.70468445e+01,0.00000000e+00,0.00000000e+00,0.00000000e+00,0.00000000e+00
7.85234222e+01,0.00000000e+00,0.00000000e+00,0.00000000e+00,0.00000000e+00
8.00000000e+01,0.00000000e+00,0.00000000e+00,0.00000000e+00,0.00000000e+00
