Height (km), 7_8 um ash conc (g/kg), 15_6 um ash conc (g/kg), 125 um ash conc (g/kg), 1 mm ash conc (g/kg)
0.00000000e+00,0.00000000e+00,0.00000000e+00,0.00000000e+00,0.00000000e+00
3.99999991e-02,9.09429882e-03,1.43917110e-02,3.66108060e-01,2.66006374e+01
7.99999982e-02,1.14581091e-02,1.80380028e-02,4.12669718e-01,2.80728569e+01
1.19999997e-01,1.42626502e-02,2.23384481e-02,4.54284251e-01,2.84065533e+01
1.59999996e-01,1.86432283e-02,2.89939940e-02,5.14457941e-01,2.95049419e+01
2.00000003e-01,2.49898769e-02,3.85803059e-02,6.08891487e-01,3.01428528e+01
2.39999995e-01,3.43110152e-02,5.28784953e-02,7.55923748e-01,3.10604267e+01
2.80000001e-01,4.72293869e-02,7.25144669e-02,9.69204783e-01,3.17740021e+01
3.19999993e-01,6.42870888e-02,9.81195495e-02,1.25357771e+00,3.25688667e+01
3.60000014e-01,8.72750580e-02,1.32631481e-01,1.61080790e+00,3.32136230e+01
4.00000006e-01,1.18651584e-01,1.79855391e-01,1.99859989e+00,3.38942795e+01
4.39999998e-01,1.61363840e-01,2.44538411e-01,2.36932135e+00,3.45421410e+01
4.79999989e-01,2.17382029e-01,3.29060376e-01,2.69485974e+00,3.52700233e+01
5.19999981e-01,2.87125111e-01,4.33857232e-01,2.96741414e+00,3.60350037e+01
5.60000002e-01,3.69762093e-01,5.56210518e-01,3.20059896e+00,3.68660660e+01
6.00000024e-01,4.55391675e-01,6.81395531e-01,3.40290618e+00,3.76999512e+01
6.41029537e-01,5.42436421e-01,8.07059169e-01,3.58896637e+00,3.86685600e+01
6.83115125e-01,6.20775044e-01,9.19331253e-01,3.75668907e+00,3.97870102e+01
7.26283848e-01,6.94133759e-01,1.02416027e+00,3.90904260e+00,4.20708809e+01
7.70563781e-01,7.50072420e-01,1.10274041e+00,4.04151297e+00,4.30430489e+01
8.15983355e-01,7.94148207e-01,1.16549563e+00,4.14156294e+00,4.54280205e+01
8.62571895e-01,8.24415147e-01,1.20874023e+00,4.19475842e+00,4.51204147e+01
9.10359621e-01,8.47144961e-01,1.24138463e+00,4.19560671e+00,4.83328972e+01
9.59377348e-01,8.60023677e-01,1.25952446e+00,4.15663528e+00,4.98401566e+01
1.00965667e+00,8.63924026e-01,1.26417017e+00,4.11056328e+00,5.43982010e+01
1.06123006e+00,8.57991815e-01,1.25458658e+00,4.08250999e+00,5.35555573e+01
1.11413085e+00,8.49699080e-01,1.24277616e+00,4.06121826e+00,5.74002991e+01
1.16839325e+00,8.51242542e-01,1.24528050e+00,4.03411865e+00,5.82918205e+01
1.22405231e+00,8.63022566e-01,1.26251745e+00,3.98616123e+00,6.13198853e+01
1.28114390e+00,8.89536202e-01,1.30047607e+00,3.91015124e+00,6.54287643e+01
1.33970511e+00,9.25549805e-01,1.35099173e+00,3.79076242e+00,6.35326424e+01
1.39977336e+00,1.95361348e+04,2.73648164e+04,1.92630586e+04,2.02877258e+03
1.46138775e+00,2.23219805e+04,3.12536641e+04,2.12237246e+04,1.92935986e+03
1.52458799e+00,1.89957031e+04,2.65962773e+04,1.80857168e+04,1.76763025e+03
1.58941495e+00,1.78796016e+04,2.50385859e+04,1.72781523e+04,1.88764050e+03
1.65591037e+00,1.75676035e+04,2.46043164e+04,1.71142188e+04,1.97487634e+03
1.72411728e+00,1.75481680e+04,2.45787578e+04,1.71833145e+04,2.05563208e+03
1.79407966e+00,1.76914727e+04,2.47806035e+04,1.73816562e+04,2.12915381e+03
1.86584306e+00,1.78066367e+04,2.49425000e+04,1.75260273e+04,2.17675049e+03
1.93945324e+00,1.78523223e+04,2.50067051e+04,1.75860938e+04,2.20885840e+03
2.01495814e+00,1.77378340e+04,2.48463105e+04,1.74730273e+04,2.19965552e+03
2.09240627e+00,1.74657051e+04,2.44649941e+04,1.72002852e+04,2.17075342e+03
2.17184782e+00,1.70553418e+04,2.38899180e+04,1.67841152e+04,2.12965674e+03
2.25333428e+00,1.64816602e+04,2.30861719e+04,1.62105361e+04,2.04457922e+03
2.33691788e+00,1.58008223e+04,2.21323418e+04,1.55334600e+04,1.98900940e+03
2.42265272e+00,1.51907822e+04,2.12777070e+04,1.49269941e+04,1.89469727e+03
2.51059437e+00,1.45797275e+04,2.04216934e+04,1.43220791e+04,1.84623389e+03
2.60079956e+00,1.39283242e+04,1.95091543e+04,1.36784873e+04,1.75283618e+03
2.69332647e+00,1.33041416e+04,1.86347090e+04,1.30604014e+04,1.69754187e+03
2.78823495e+00,1.26529619e+04,1.77224180e+04,1.24154697e+04,1.60250940e+03
2.88558602e+00,1.18897891e+04,1.66533574e+04,1.16638066e+04,1.52695435e+03
2.98544264e+00,1.09227422e+04,1.52989111e+04,1.07197109e+04,1.40696741e+03
3.08786964e+00,9.89656348e+03,1.38619150e+04,9.72746191e+03,1.30859521e+03
3.19293284e+00,9.05962207e+03,1.26899033e+04,8.91736621e+03,1.20913391e+03
3.30070019e+00,8.54621582e+03,1.19706689e+04,8.41107520e+03,1.16010571e+03
3.41124129e+00,8.50808398e+03,1.19168740e+04,8.35911523e+03,1.13947839e+03
3.52462745e+00,8.22474121e+03,1.15198311e+04,8.07332617e+03,1.10808838e+03
3.64093208e+00,6.85527393e+03,9.60257324e+03,6.76309814e+03,9.67443115e+02
3.76023054e+00,5.61543213e+03,7.86713477e+03,5.58514014e+03,8.49923523e+02
3.88259912e+00,5.30800537e+03,7.43593213e+03,5.26351758e+03,7.95058533e+02
4.00811720e+00,5.47100293e+03,7.66355957e+03,5.40109570e+03,8.11131165e+02
4.13686609e+00,5.99360986e+03,8.39618457e+03,5.93148389e+03,8.96540771e+02
4.26892853e+00,6.09661230e+03,8.54136133e+03,6.05880322e+03,9.22025452e+02
4.40439081e+00,5.06513135e+03,7.09669580e+03,5.05385205e+03,7.90310608e+02
4.54333878e+00,3.92979883e+03,5.50679639e+03,3.95172290e+03,6.51402527e+02
4.68586397e+00,3.43136206e+03,4.80867725e+03,3.46220459e+03,5.75211853e+02
4.83205652e+00,3.26479956e+03,4.57517822e+03,3.28960938e+03,5.34836365e+02
4.98201227e+00,3.09846118e+03,4.34175781e+03,3.11251416e+03,4.93303558e+02
5.13582754e+00,2.89034302e+03,4.04979468e+03,2.89754834e+03,4.53743073e+02
5.29360199e+00,2.95373145e+03,4.13881738e+03,2.96800684e+03,4.53912354e+02
5.45543718e+00,3.34890625e+03,4.69232178e+03,3.35042554e+03,4.68639313e+02
5.62143755e+00,3.22113770e+03,4.51215771e+03,3.18854663e+03,4.15529419e+02
5.79171038e+00,2.34796094e+03,3.28931006e+03,2.34125317e+03,3.18863068e+02
5.96636629e+00,1.77241602e+03,2.48450391e+03,1.81708276e+03,2.76260071e+02
6.14551687e+00,1.85057507e+03,2.59462964e+03,1.91215833e+03,2.82948212e+02
6.32927942e+00,2.13053101e+03,2.98584448e+03,2.16113232e+03,2.83817566e+02
6.51777077e+00,2.26270166e+03,3.16932617e+03,2.24952759e+03,2.66896729e+02
6.71111441e+00,2.28692822e+03,3.20163770e+03,2.23477271e+03,2.44407654e+02
6.90943432e+00,1.96831226e+03,2.75453320e+03,1.90555127e+03,1.98744507e+02
7.11285782e+00,1.33614136e+03,1.87011792e+03,1.31951636e+03,1.46362701e+02
7.32151794e+00,9.50841919e+02,1.33180872e+03,9.84870300e+02,1.20574730e+02
7.53554821e+00,8.61467957e+02,1.20717981e+03,9.18740662e+02,1.12802383e+02
7.75508738e+00,8.17976807e+02,1.14664563e+03,8.95233643e+02,1.07364235e+02
7.98027754e+00,7.53346985e+02,1.05694800e+03,8.61112732e+02,1.02647972e+02
8.21126270e+00,7.39713501e+02,1.03877527e+03,8.74036987e+02,1.01988258e+02
8.44819450e+00,7.74932373e+02,1.08886243e+03,9.24023193e+02,1.03390930e+02
8.69122219e+00,8.15951172e+02,1.14689575e+03,9.68915527e+02,1.05239677e+02
8.94050789e+00,8.29441528e+02,1.16599854e+03,9.83115234e+02,1.06230354e+02
9.19620800e+00,8.13629700e+02,1.14354822e+03,9.79721558e+02,1.06375893e+02
9.45849037e+00,8.00086426e+02,1.12347424e+03,9.99998291e+02,1.05621025e+02
9.72752285e+00,7.91453186e+02,1.11053003e+03,1.05403076e+03,1.03055748e+02
1.00034800e+01,7.88882629e+02,1.10715601e+03,1.14369519e+03,1.01081627e+02
1.02865391e+01,7.92668518e+02,1.11400671e+03,1.27424475e+03,9.83233261e+01
1.05768833e+01,8.16429016e+02,1.15050305e+03,1.44933997e+03,9.62158661e+01
1.08747025e+01,8.69039307e+02,1.22889148e+03,1.67328174e+03,9.25610809e+01
1.11801853e+01,9.68279236e+02,1.37443359e+03,1.98320874e+03,9.12657318e+01
1.14935322e+01,1.16576501e+03,1.65947192e+03,2.36616846e+03,8.81681671e+01
1.18149433e+01,1.45492334e+03,2.07157666e+03,2.67103857e+03,8.52065582e+01
1.21446266e+01,1.78443091e+03,2.53838794e+03,2.84695654e+03,8.16223450e+01
1.24827967e+01,2.15159131e+03,3.05541211e+03,2.92047412e+03,7.78293610e+01
1.28296700e+01,2.58948438e+03,3.66802441e+03,2.84391309e+03,7.39466324e+01
1.31854706e+01,3.08447314e+03,4.35455176e+03,2.55921313e+03,6.96475143e+01
1.35504293e+01,3.48544922e+03,4.89998438e+03,2.12256982e+03,6.58151245e+01
1.39247818e+01,3.65293359e+03,5.10817676e+03,1.69239575e+03,6.16734657e+01
1.43087692e+01,3.43706274e+03,4.77114941e+03,1.43538037e+03,5.71712532e+01
1.47026405e+01,2.91025659e+03,4.01286963e+03,1.39015173e+03,5.36727638e+01
1.51066484e+01,2.40681836e+03,3.31721899e+03,1.35699158e+03,5.10809898e+01
1.55210552e+01,2.12720972e+03,2.93833594e+03,1.17646594e+03,4.90952454e+01
1.59461288e+01,1.75260461e+03,2.41820728e+03,9.51253052e+02,4.70782661e+01
1.63821430e+01,1.28157922e+03,1.76760559e+03,7.28111816e+02,4.45343246e+01
1.68293781e+01,8.38748169e+02,1.16020959e+03,5.71871826e+02,4.11064796e+01
1.72881241e+01,6.53664612e+02,9.07879089e+02,5.00948059e+02,3.65091209e+01
1.77586803e+01,5.40753113e+02,7.52968811e+02,4.35826019e+02,3.05573788e+01
1.82413464e+01,4.35271240e+02,6.07001953e+02,3.58895691e+02,2.32550812e+01
1.87364349e+01,3.28478790e+02,4.58344666e+02,2.70301331e+02,1.49553528e+01
1.92442665e+01,2.18329803e+02,3.04551788e+02,1.72523849e+02,6.98730564e+00
1.97651691e+01,1.06627724e+02,1.48468597e+02,7.43882141e+01,1.53535473e+00
2.02994785e+01,1.95409298e+01,2.69849205e+01,8.28180313e+00,1.20760584e-02
2.08475418e+01,2.98110580e+00,4.06236029e+00,5.21617591e-01,1.82920921e-04
2.14097099e+01,1.94167614e+00,2.64864016e+00,3.19432646e-01,1.77553720e-05
2.19863453e+01,1.31961977e+00,1.80004668e+00,1.92828894e-01,2.09175096e-06
2.25778236e+01,6.56116903e-01,8.93002987e-01,7.27822408e-02,1.15174441e-06
2.31845264e+01,1.34121820e-01,1.81400746e-01,8.70773010e-03,5.68521102e-07
2.38068466e+01,5.76119777e-03,7.51698762e-03,7.72806015e-05,1.49471859e-07
2.44451809e+01,1.18027651e-03,1.51677977e-03,1.54885729e-05,4.60782630e-08
2.50999470e+01,3.13426426e-04,3.99382057e-04,4.62033995e-06,1.52745230e-08
2.57715645e+01,8.38127089e-05,1.06229665e-04,1.30941737e-06,5.24987964e-09
2.64604683e+01,1.56804344e-05,1.97721620e-05,3.24840073e-07,1.19327248e-09
2.71671047e+01,2.29528905e-06,2.89053673e-06,7.53950502e-08,1.90715402e-10
2.78919277e+01,3.05648229e-07,3.90588184e-07,1.37553613e-08,2.62090176e-11
2.86354065e+01,3.71752549e-08,4.77161421e-08,2.00249617e-09,3.00836309e-12
2.93980217e+01,3.96304456e-09,5.09527931e-09,2.45269027e-10,2.99896555e-13
3.01802654e+01,4.03230338e-10,5.21532206e-10,2.73474941e-11,3.01891623e-14
3.09826431e+01,3.98126532e-11,5.13967480e-11,2.83640299e-12,2.91072750e-15
3.18056717e+01,3.47658751e-12,4.51152744e-12,2.54878448e-13,2.44271173e-16
3.26498833e+01,2.65003514e-13,3.45829810e-13,1.98071912e-14,1.76810071e-17
3.35158234e+01,1.75189571e-14,2.30069581e-14,1.32818006e-15,1.20697759e-18
3.44040565e+01,1.00520132e-15,1.32623072e-15,7.50421031e-17,8.36991492e-20
3.53151436e+01,4.78821604e-17,6.35790209e-17,3.73954086e-18,5.73324860e-21
3.62496834e+01,2.00243014e-18,2.69067977e-18,1.83770994e-19,3.31081968e-22
3.72082787e+01,8.21128494e-20,1.13319970e-19,9.14149930e-21,1.41953848e-23
3.81915474e+01,3.55151208e-21,4.96119101e-21,3.90747040e-22,4.52349705e-25
3.92001228e+01,1.39639487e-22,1.97767606e-22,1.27411134e-23,1.07894532e-26
4.02346535e+01,4.47372801e-24,6.39920022e-24,3.25631354e-25,2.18228807e-28
4.12958107e+01,1.20605258e-25,1.71191186e-25,7.41336581e-27,4.30087165e-30
4.23842850e+01,2.87675482e-27,3.99517681e-27,1.59287479e-28,8.51193797e-32
4.35007744e+01,6.34445620e-29,8.53877953e-29,3.19296540e-30,1.62201157e-33
4.46459999e+01,1.30642524e-30,1.69155255e-30,5.97217898e-32,3.40943527e-35
4.58207016e+01,2.97936860e-32,3.68638379e-32,1.47653313e-33,8.96099472e-37
4.70256386e+01,6.14364684e-34,7.26000326e-34,2.58179398e-35,2.17495535e-38
4.82615852e+01,1.37410267e-35,1.58621627e-35,6.81990932e-37,4.27396032e-40
4.95293465e+01,1.89550841e-37,1.94522648e-37,7.82765322e-39,5.60519386e-42
5.08297386e+01,6.95044038e-40,7.58102469e-40,3.50324616e-41,0.00000000e+00
5.21635971e+01,1.40129846e-42,2.80259693e-42,0.00000000e+00,0.00000000e+00
5.35317917e+01,0.00000000e+00,0.00000000e+00,0.00000000e+00,0.00000000e+00
5.49351997e+01,0.00000000e+00,0.00000000e+00,0.00000000e+00,0.00000000e+00
5.63747253e+01,0.00000000e+00,0.00000000e+00,0.00000000e+00,0.00000000e+00
5.78513031e+01,0.00000000e+00,0.00000000e+00,0.00000000e+00,0.00000000e+00
5.93278885e+01,0.00000000e+00,0.00000000e+00,0.00000000e+00,0.00000000e+00
6.08044662e+01,0.00000000e+00,0.00000000e+00,0.00000000e+00,0.00000000e+00
6.22810478e+01,0.00000000e+00,0.00000000e+00,0.00000000e+00,0.00000000e+00
6.37576256e+01,0.00000000e+00,0.00000000e+00,0.00000000e+00,0.00000000e+00
6.52341995e+01,0.00000000e+00,0.00000000e+00,0.00000000e+00,0.00000000e+00
6.67107849e+01,0.00000000e+00,0.00000000e+00,0.00000000e+00,0.00000000e+00
6.81873703e+01,0.00000000e+00,0.00000000e+00,0.00000000e+00,0.00000000e+00
6.96639481e+01,0.00000000e+00,0.00000000e+00,0.00000000e+00,0.00000000e+00
7.11405258e+01,0.00000000e+00,0.00000000e+00,0.00000000e+00,0.00000000e+00
7.26171036e+01,0.00000000e+00,0.00000000e+00,0.00000000e+00,0.00000000e+00
7.40936813e+01,0.00000000e+00,0.00000000e+00,0.00000000e+00,0.00000000e+00
7.55702591e+01,0.00000000e+00,0.00000000e+00,0.00000000e+00,0.00000000e+00
7.70468445e+01,0.00000000e+00,0.00000000e+00,0.00000000e+00,0.00000000e+00
7.85234222e+01,0.00000000e+00,0.00000000e+00,0.00000000e+00,0.00000000e+00
8.00000000e+01,0.00000000e+00,0.00000000e+00,0.00000000e+00,0.00000000e+00
