lambda(microns) / Relative Solar Flux

5.00312695435 0.00133531052736
4.71175166297 0.00329480593097
4.35866803201 0.00455315701799
4.090752307 0.00585652362802
3.79308050337 0.00807625417374
3.4079644529 0.0121065825126
3.07954951185 0.0178693698726
2.78964124864 0.0255692799904
2.57048202312 0.0343724906453
2.34201637498 0.0491999021026
2.111422596 0.071338176839
1.94119970656 0.0958187208227
1.774980553 0.132276426849
1.62635447 0.172384669804
1.49778019572 0.2176275062
1.3689023535 0.271123265492
1.25491768164 0.33054537735
1.16629466182 0.387974472737
1.0997311097 0.436515053919
1.05289407331 0.483564141897
0.998903945795 0.542222330752
0.926402029343 0.634502572696
0.866862790149 0.718958117508
0.81338685432 0.828223964029
0.768096712369 0.911322057855
0.721482351352 1.01535700577
0.678875835061 1.16135382317
0.658325208536 1.13802081327
0.624985875323 1.25013493082
0.574991250147 1.37213890876
0.524997250027 1.40014046779
0.475002250023 1.45340580657
0.425002250023 1.20532759399
0.375002625039 0.72863768097
0.325004125054 0.433035962296
0.292858642872 1.17012957411

